"sample","4000","4032","4064","4096","4128","4160","4192","4224","4256","4288","4320","4352","4384","4416","4448","4480","4512","4544","4576","4608","4640","4672","4704","4736","4768","4800","4832","4864","4896","4928","4960","4992","5024","5056","5088","5120","5152","5184","5216","5248","5280","5312","5344","5376","5408","5440","5472","5504","5536","5568","5600","5632","5664","5696","5728","5760","5792","5824","5856","5888","5920","5952","5984","6016","6048","6080","6112","6144","6176","6208","6240","6272","6304","6336","6368","6400","6432","6464","6496","6528","6560","6592","6624","6656","6688","6720","6752","6784","6816","6848","6880","6912","6944","6976","7008","7040","7072","7104","7136","7168","7200","7232","7264","7296","7328","7360","7392","7424","7456","7488","7520","7552","7584","7616","7648","7680","7712","7744","7776","7808","7840","7872","7904","7936","7968","8000","8032","8064","8096","8128","8160","8192","8224","8256","8288","8320","8352","8384","8416","8448","8480","8512","8544","8576","8608","8640","8672","8704","8736","8768","8800","8832","8864","8896","8928","8960","8992","9024","9056","9088","9120","9152","9184","9216","9248","9280","9312","9344","9376","9408","9440","9472","9504","9536","9568","9600","9632","9664","9696","9728","9760","9792","9824","9856","9888","9920","9952"
"71-E4-Qu-Mar",0.53102955348406,0.541953161506103,0.566358572449445,0.591119075702418,0.61020578331129,0.617015451377544,0.618045955623942,0.6139624090434,0.610792541603826,0.611968653851767,0.604627103443683,0.621825696827924,0.633895428884541,0.657644561228172,0.696689045558043,0.726437881247401,0.731789105087254,0.726404083156571,0.720174067071042,0.71592139409467,0.712732753569536,0.708751819894487,0.703578881324224,0.6997755757261,0.701403708151823,0.705931221364479,0.714668602751594,0.728605619693238,0.746434045150027,0.760654495766657,0.764930930573391,0.760711720312591,0.750786681440243,0.733676393735542,0.714590424848025,0.698445537915993,0.686602278579702,0.68726802037853,0.713433927846148,0.777292668135869,0.848394699209195,0.88741736592889,0.901877080130792,0.905794053549561,0.90399303272671,0.899424453385607,0.895004839611779,0.891950911477795,0.889102807939752,0.88660231707439,0.88422203060907,0.879718529744406,0.875338562942972,0.875052254277048,0.872423348763842,0.86335703790831,0.865481193428371,0.874709458757603,0.88427820962672,0.893115756303358,0.901970107029659,0.909387046236945,0.916756028598032,0.923483680072817,0.927758001186213,0.92911251358233,0.92823505424298,0.926394995158974,0.924087384288251,0.920630370138027,0.917325618776263,0.914265062426331,0.912010274339101,0.909692193840854,0.908155399998268,0.907241269211355,0.90613534311849,0.904989321433593,0.903646996699058,0.901101247242149,0.89778439543695,0.893858291349594,0.889590511173474,0.885775572575178,0.882489897353283,0.87981840856378,0.87759075633575,0.875257605982374,0.873896683809093,0.873634896939556,0.87434266735327,0.876394848897575,0.881917420502572,0.892490464053342,0.909063936113343,0.9297862982137,0.951973612612048,0.971904918413855,0.986534628590424,0.996352460927022,1.00406719272456,1.00897094958544,1.01174214657117,1.01475665331362,1.01865494153077,1.02226997861972,1.02654322751281,1.03072647986853,1.03434260231195,1.03679694612278,1.03873472760138,1.03969335114278,1.03980290500271,1.03954933207307,1.03914669171069,1.03879209819685,1.03826014013684,1.03696836718506,1.03521825978856,1.03418678306891,1.03343753022807,1.03250526436148,1.03124689269125,1.03017502725155,1.02875958707907,1.0270584939807,1.02497615832092,1.02289119842994,1.02039896423592,1.01833439257014,1.01536616706864,1.01249409730351,1.01027614462912,1.00921756110281,1.00843064255174,1.00747405147762,1.00715971001585,1.00691706332282,1.00691277474424,1.00721953579306,1.00741134943843,1.00806606949042,1.0081924845972,1.00822726133494,1.00852681081702,1.00886476485173,1.00949375706377,1.00954079137077,1.0095952478149,1.00927970884375,1.00836316875391,1.0077595183462,1.00745303813859,1.00649307140143,1.00583164027322,1.00481486910196,1.00335219270732,1.00217484058171,1.00075453096141,0.999100508425198,0.99746210883184,0.996231315527316,0.994496971010078,0.993230916456178,0.991876988924007,0.990265735721394,0.988193149246673,0.987021895188681,0.98560527445413,0.983883681641433,0.982522611239672,0.980515168730658,0.978614555558582,0.977317630138835,0.975538049969451,0.974279918769523,0.972307122746033,0.970541212704612,0.968988285441829,0.96736929748465,0.965663894623552,0.963639130263876,0.961863359064065,0.960503692384195,0.958645601599133,0.957085678484719,0.954778876364078
"80-E2-Fa-Mar",0.629100479759552,0.640239872071101,0.66777995080674,0.696933384181599,0.716000980041698,0.721355170848936,0.720668447180685,0.716070480454704,0.711820320962917,0.711980459572489,0.707857944857111,0.720069478276163,0.728206812432782,0.749781361050638,0.787382209702401,0.81612295139844,0.820689168522161,0.815038601430566,0.809122898138316,0.806068116360394,0.804669519328284,0.802164147537696,0.797227308289991,0.791860389742429,0.792664107629456,0.797431924981204,0.805914459962567,0.818877272182791,0.836272760672767,0.852721533257214,0.859189336952451,0.854622216454112,0.843190699286475,0.827255520607972,0.809973198696392,0.792794273454174,0.776966121510711,0.772284539666824,0.794646579917942,0.854512293352731,0.919355082296344,0.953552852187221,0.96508036202301,0.967808169489077,0.966113644041456,0.961975983697554,0.958378878939431,0.955300422871024,0.952578481735451,0.949519859876347,0.946613076949502,0.943058305959272,0.939596620677694,0.938458844366321,0.936407306600167,0.930058202560478,0.930038433141881,0.937420910535206,0.945375991695799,0.951315022537391,0.956663283578366,0.961269147872792,0.966557288125845,0.972749322553821,0.977159803879851,0.978572813641796,0.978181989257874,0.977097179596236,0.975030389900454,0.97182287326782,0.968407804407583,0.965831226028161,0.963802266591808,0.962241056585618,0.961297539936829,0.960804030287976,0.959769368880294,0.958962190602876,0.957578112663294,0.955318648275326,0.952334117669655,0.948800097751146,0.945102500142165,0.941311970671669,0.937944430845609,0.935021601810264,0.932262951011197,0.930211158578147,0.929287015952192,0.929093831433506,0.929007421138547,0.930264432552624,0.934320124521906,0.943028861908472,0.956957579169508,0.974226721961396,0.992291533503491,1.00820866526008,1.01973621845391,1.02717967609744,1.03274602863391,1.0366068199314,1.03860843491772,1.04095429087786,1.04394293729475,1.04642845344336,1.04909705027082,1.05201081119382,1.05408242126897,1.05587954889914,1.05719867224522,1.05797677975746,1.05765720156354,1.05711590895267,1.05622569990547,1.05538094431106,1.05491410767849,1.05393426278147,1.05265642214034,1.05164528499447,1.05084066798241,1.04982105889724,1.04889451304106,1.04805032073163,1.04696344885322,1.04536243000749,1.04339468257746,1.04194027697318,1.04025548140231,1.03882664607894,1.03663237518481,1.0344335671551,1.03266105537467,1.03156688049956,1.03083185973163,1.02985575594367,1.02860722866334,1.02784390599638,1.02736577422487,1.02713709252811,1.02681022125319,1.02638621417293,1.0259319418258,1.02603453698731,1.02603051830056,1.02563797998071,1.02547767810102,1.02489586629319,1.02416455565549,1.02372055041833,1.02312933194823,1.0229354272796,1.02248936241236,1.02124707992156,1.01986627311206,1.01864221516332,1.01734398675882,1.01601412207421,1.01409200405423,1.01236542925494,1.01118581274291,1.00988374031559,1.00861250561675,1.00734319788716,1.00556051926223,1.00428491851962,1.00279720895198,1.00108064548718,0.999394669456718,0.998199747187037,0.996665224608759,0.994934347447826,0.993436283253493,0.991456359420032,0.990187593419593,0.988330193925829,0.986972515243324,0.985559812744534,0.983534867375816,0.982345348601871,0.980651215285841,0.978606084717096,0.977120425479724,0.975787390361616,0.97358733757431,0.971719092103792,0.969951476332946
"15-AE2-Ca-Mar-2",0.622678386586854,0.634205837109854,0.658304733617882,0.68405518000297,0.704115539110807,0.714150678919087,0.716572744585416,0.712206647500086,0.707947916693369,0.706979035077265,0.701753717892492,0.715402612438508,0.726293351542156,0.748868894063634,0.783324198327773,0.807107404611104,0.809173910140963,0.802572535852404,0.797037372720424,0.794346717687147,0.793647213794468,0.791158131969224,0.787372140644403,0.785375886247426,0.786939461938916,0.790805646639773,0.796844962127991,0.807068539755712,0.819120525314281,0.82813928469184,0.827291482082101,0.8192206825571,0.807324113829986,0.791318372087109,0.772833389002821,0.755058130149648,0.740859607140966,0.739146733592957,0.764588834233905,0.82730593835005,0.893880915650723,0.929011094712275,0.943007471040266,0.947443478127485,0.946296998139483,0.942571193616636,0.938575993326685,0.935873916292784,0.933540992554439,0.930900418222282,0.92816476969242,0.92458812758133,0.921447839345174,0.921120491907602,0.918593902369432,0.913136869892855,0.91410263211999,0.919994022067249,0.926155439017477,0.930876247600507,0.93697645863237,0.942171536719302,0.946354849339462,0.950594345466666,0.953429909465757,0.953766737743822,0.952486349458996,0.95116039895018,0.949110626765473,0.946598882723194,0.94344252670761,0.940630964258673,0.938684930752832,0.936995453940213,0.935705873045099,0.934591931083739,0.933156074531255,0.932019134201454,0.930520473810468,0.928642956900941,0.926086780766561,0.922652381726222,0.91913269407939,0.915758594438272,0.912620283156689,0.90955379638169,0.907008234558942,0.904585398345481,0.90388703571553,0.904002883402258,0.904381194568161,0.906236877336658,0.910702625445863,0.918370755013388,0.928738209777939,0.942119892779404,0.956821961689227,0.970415522480054,0.980758641066213,0.987370257310473,0.992153980806085,0.995125971249791,0.996588294599433,0.997817344925329,0.99968141396254,1.00139717110143,1.00288554184985,1.00453358164542,1.00570870802504,1.0061597430695,1.00619212596737,1.0056554774716,1.00532652725147,1.0048762318807,1.00427717949514,1.00334482127409,1.00219944370804,1.00070420001665,0.999451290615368,0.998260398219278,0.997084980211611,0.995871334267004,0.9948015264427,0.993651623721014,0.991793493163359,0.990121189364121,0.988266685527463,0.986882078121512,0.98469152071334,0.982394491711858,0.979753693239707,0.977271060975384,0.975290218048285,0.973781037723483,0.97288981077286,0.971652408273773,0.970497834816765,0.969255731060418,0.968111367572587,0.966984973480537,0.965877689051079,0.965029551051519,0.964267822592749,0.963019247248133,0.962281072762532,0.962063056372804,0.961844518708206,0.96087503631959,0.959512544196286,0.958143326994448,0.956797813563469,0.955620425338316,0.954334685755101,0.953094398844963,0.951646601477486,0.95006799171022,0.948547850494539,0.946821269256947,0.945291033247003,0.943416433965302,0.941571763348138,0.940355407981021,0.938738359728166,0.936764412181471,0.934650489443638,0.93269593024065,0.930145745017947,0.928582854869111,0.926855535480994,0.924915418310195,0.922371524766217,0.920212051052402,0.918181893284645,0.916704270945206,0.914620942847716,0.912673826545354,0.911159049926489,0.909542128448058,0.907379677878626,0.905390787060387,0.902940412618423,0.900302929496631,0.898470221194557,0.89650833760511,0.894424252200331,0.892299812867934,0.890213052956337
"42-AE4-Qu-Mar",0.598038125219171,0.610370207120525,0.63748542936545,0.664836658374182,0.685444205494139,0.693370382395962,0.694134257515039,0.691117996590115,0.688772215326863,0.689345817454959,0.68500755956743,0.701728005979439,0.71090066585473,0.733755944318647,0.773420834310118,0.804758016760773,0.809761984582016,0.802791201871721,0.795384552083823,0.790086836072672,0.785909370625894,0.780799806234585,0.774938616474771,0.769267215768348,0.768978669008027,0.773163740858893,0.782627344309146,0.796968991061742,0.813312196107042,0.824547439756113,0.824838874721768,0.816029497903344,0.802000133662065,0.782104327665949,0.760356849553101,0.741001032133065,0.725886939066166,0.725113827434051,0.754856648258656,0.825488539862727,0.90216486093131,0.944958831115632,0.961635350296668,0.966397002175184,0.965527639519776,0.961230815286762,0.956847779743679,0.953010438704132,0.949726550718281,0.946242341482857,0.943357000004109,0.939193255717192,0.936461792835288,0.937306974416886,0.93512674497795,0.926830700718091,0.928819874590389,0.937257248030438,0.94542467186893,0.952770216954424,0.961026947003383,0.967548614619659,0.973272983747431,0.978483524685389,0.981888194485856,0.982470768670388,0.980658857243887,0.978038941141332,0.97525557543884,0.971043601425357,0.965983627979651,0.961885338050874,0.959341868410404,0.95769569018844,0.956138931515485,0.9550715933457,0.953718470303705,0.9524164131504,0.950789927307617,0.948188252542481,0.945074905846895,0.940787170863912,0.936699188510259,0.932612784029594,0.928405371121477,0.92500258849771,0.921879329305631,0.919754327991319,0.919358574598254,0.920198728420382,0.921382093454529,0.923830335395391,0.929360227854435,0.940494717778892,0.957280661532876,0.97839473884276,1.00114595800305,1.02266340224193,1.03992152496953,1.05171951909516,1.0604654976477,1.06615090806466,1.0696935754447,1.07323564741187,1.07767761315075,1.08221195481414,1.08628779433068,1.09084743760314,1.09515608772371,1.09850278209639,1.10102768214172,1.10273975972338,1.10342000346202,1.10374588422128,1.10350943810999,1.10325057390465,1.10271474544422,1.10193840469163,1.1009572656885,1.10005378299143,1.09917024774951,1.09840791510119,1.09744547670073,1.09631957308737,1.09530834809801,1.09358411861986,1.09180275809891,1.09001014795652,1.08778840943254,1.08536842348448,1.0826116476211,1.08025282664277,1.07884268930183,1.07830719301843,1.07789505828652,1.07757327544808,1.07759002192464,1.07724499665341,1.07690932463907,1.07747124473732,1.07809256843181,1.07865766721361,1.07884687074877,1.07919284988849,1.07975278020139,1.0804232738055,1.08109360993072,1.08148038503501,1.08185751666123,1.08184823992714,1.08151819879523,1.08107993490299,1.08035929439045,1.07963672024783,1.07884899154165,1.07853120729216,1.07736081316041,1.07642785248314,1.07521894804744,1.07403526432895,1.07284632829419,1.07105546404082,1.06955772178833,1.06828169870407,1.06725875898117,1.06582244307096,1.06435850872939,1.06304111103717,1.06100062461707,1.05963502572567,1.05831212642378,1.05696996406705,1.05540547826262,1.05409998098896,1.05199308171617,1.05015267534786,1.04843292492671,1.0468229698703,1.0452706026804,1.04366231731148,1.04193919410489,1.0401494595104,1.03818999517845,1.036719424107,1.03521806729303,1.03366617003403,1.03123411488036
"23-AE2-Fa-Mar",0.636786988805883,0.648882580299409,0.675761822834474,0.704212110135556,0.724551577086998,0.732457374142922,0.732538640454554,0.727689470656456,0.723885720945013,0.723610672453689,0.71972644981937,0.73295250945275,0.742497568143322,0.763785876948162,0.80010138171667,0.825909573190833,0.829682981028006,0.823244731866071,0.81578987134327,0.812191263662317,0.810240070401357,0.807601234034653,0.803762560900414,0.799607302077974,0.800895356010359,0.804854719336013,0.812301958426705,0.823850890564675,0.838147684174994,0.848546703174962,0.84939435321727,0.84080350570145,0.827457780691035,0.809690794640255,0.7902065487433,0.771472828922915,0.755997635593275,0.753016838860288,0.778620104362923,0.843881730956297,0.91592497204743,0.954736349478234,0.969635169080916,0.97341567557514,0.971703661376467,0.967375574822979,0.963553030018257,0.960531930975528,0.95737154919181,0.95359090347193,0.950295587280436,0.947035343364699,0.944062969351906,0.943696527795595,0.942764199919375,0.937992518579293,0.93808654187365,0.943766373036636,0.95071592471742,0.956294313203938,0.962012648221849,0.966189256212479,0.970774969412813,0.976520969481931,0.980224048552791,0.981931945165032,0.98141109994939,0.979293513268606,0.9768411549803,0.973506131644058,0.969890732460317,0.966762649362528,0.96472388927358,0.962787359572215,0.961506906521344,0.960055235165792,0.958926882379577,0.957697516998276,0.95582641187652,0.953664574949971,0.950866897229578,0.947140102339517,0.943055482393728,0.939620048045596,0.936230975408918,0.933256592991981,0.930292123429408,0.927564679930246,0.9263500574721,0.926316575614951,0.926775734422819,0.92874790922465,0.933396811371342,0.94195052778733,0.954866799104253,0.97118227968537,0.989219662078703,1.00622567759846,1.01951487976965,1.02851559712544,1.03533535692268,1.03962586884142,1.04225879527651,1.04410407379222,1.0460688998739,1.04861462618262,1.05130698592731,1.05403127784145,1.05674532284606,1.05808064814689,1.0594697025168,1.05987551043591,1.06019191715496,1.06015899164502,1.05987203034993,1.05911413580489,1.05813443201756,1.05732460457485,1.05583499916512,1.05468647865396,1.05390737756062,1.05301106395503,1.05219381330397,1.05101542061999,1.04965206807142,1.04830007963188,1.04680131649417,1.04501826573706,1.0433030443495,1.04149196819605,1.03922745907497,1.03635279055423,1.03457830007669,1.03297619786837,1.0317016628953,1.03104922098481,1.03049470334073,1.02941847606002,1.02877960951498,1.02856682130527,1.02822750443676,1.02803048482857,1.02756627686899,1.02726619725863,1.02718482510835,1.02694152747222,1.02696455407505,1.02660451572636,1.02594292546835,1.02527990234629,1.02439514811124,1.0235392182772,1.02268363045939,1.02180253990797,1.02042870482772,1.02005541992311,1.01843563439021,1.01684481958104,1.01553657607713,1.01387841079516,1.01236649459748,1.01066125808395,1.00919903884211,1.00755558797166,1.00599957106003,1.00459715047172,1.00322642482616,1.00193086165681,1.00010474413372,0.998701444313174,0.997109183865267,0.995650448967645,0.993546487146537,0.991714851942835,0.990372837577455,0.988835555588439,0.98753413445024,0.985839082824176,0.983768999616309,0.982652597464229,0.980424578671713,0.978154714731955,0.976162412133813,0.974868768748019,0.972929889366855,0.970752974289419,0.969591815100312
"24-AE4-Ca-Mar",0.603054916553152,0.615049998429531,0.639871348379854,0.665695893598514,0.685748040046175,0.69455179108233,0.695948150656989,0.692227631044474,0.688410240334079,0.687751228659236,0.682704790451115,0.696245807867872,0.706027603785629,0.726910213547442,0.759460219290543,0.781764134457093,0.783864621056215,0.777701953300632,0.771433290462628,0.769407356198262,0.768180531374713,0.765312783232834,0.762491310527419,0.760025340042377,0.761726255865432,0.765659167354768,0.772728620494877,0.783345215395473,0.795511427448334,0.803428315578004,0.802232570953128,0.794408512266423,0.782872210061485,0.765816424743507,0.746448729475823,0.729631820119153,0.71647004911361,0.715779328476055,0.742390992152481,0.806107306121124,0.873163314649832,0.908669470753959,0.9222572924823,0.926013486076544,0.924986835794044,0.92159498115122,0.917992566200416,0.915014338581334,0.912166206082508,0.909087124455106,0.905914429891945,0.902656171843196,0.900087866849171,0.899817428028724,0.898187038329245,0.89320075376521,0.894422640439523,0.899989852273747,0.906336453762502,0.911675876547978,0.918512438669941,0.923671763013876,0.927058040836123,0.930810404500333,0.934013347864652,0.935037501098974,0.93399817191696,0.932548157888657,0.931182562061774,0.928730555336823,0.92566626006701,0.922704588599413,0.920491279912273,0.918593486232216,0.917165874479769,0.91628001308501,0.91537400373366,0.914618749142194,0.91357595088907,0.911668573409079,0.90901540642476,0.905743091370719,0.902116224556285,0.89889043332061,0.895842375070587,0.892959074736633,0.890300615213041,0.887984841823307,0.887158459968115,0.887267689843082,0.887732610235447,0.889934045195376,0.895106459067374,0.90384629448185,0.916249028054719,0.930482144564479,0.946012498029107,0.960520962660815,0.97143694528665,0.979049225416837,0.984585388814035,0.987326526233947,0.98879468513711,0.990270248000544,0.992058626830469,0.994211547012176,0.996139438377889,0.997641637024095,0.999222989247728,1.00039292552443,1.00103192200053,1.00111936297822,1.0008983786145,1.00041793569369,0.999752917104786,0.999042029395375,0.998026879451338,0.996739540241337,0.995269274695994,0.99409442125023,0.992843637597046,0.991754756808466,0.990478911060095,0.98934414943708,0.987579583216662,0.986033050732169,0.98436439588341,0.982744221253869,0.980951598018997,0.978834858664958,0.976068326963835,0.973799125297189,0.972310220852261,0.970510803364169,0.969064715599846,0.96816593764687,0.96715992514965,0.965748375174295,0.964415914670292,0.963491556819878,0.962372350361127,0.961754168777904,0.960526503989938,0.9598269518081,0.959455214199729,0.959068434916754,0.958568811982809,0.958094501973639,0.95716833866304,0.955935123862492,0.954486661084647,0.953279109985661,0.952135368325382,0.950795132686933,0.949101679335513,0.947663719347326,0.94597613030309,0.944701139846316,0.943569359680293,0.941822070105365,0.940113839604318,0.938261946515022,0.93639527854895,0.934591543633264,0.932905330305397,0.931300622548571,0.929634709749753,0.927536265220511,0.925508222332503,0.923646676849773,0.92244303890216,0.920177543324267,0.91834042097399,0.916125629047109,0.913990585019249,0.912229312976912,0.91020459777698,0.908804492892307,0.906630310124199,0.904602097296815,0.902766028675576,0.900546163918424,0.898461698826122,0.896470722944853,0.894057324453241,0.892143541261122,0.891505012701085
"47-E1-Qu-Mar",0.568239770793159,0.579841723448309,0.604671086336103,0.630516870781834,0.650028109001879,0.6579376155924,0.659536392139089,0.656164650203205,0.654116887514448,0.65571825928752,0.648101707098918,0.667722871350535,0.680854681730259,0.705409022986525,0.743373014315181,0.771501096214599,0.775227248593655,0.767906156637441,0.760822419004505,0.756697921053896,0.753229095529983,0.749529974778406,0.745586704241665,0.742595771680441,0.744709518784481,0.750653230816418,0.75973549170662,0.771663914370993,0.785958296462804,0.795917992469958,0.795586671001265,0.787467158873931,0.773588398847014,0.754231838203058,0.73395170990856,0.71596670585297,0.701564693638738,0.700592603845063,0.72917324142234,0.797849777778625,0.872645825944929,0.914299879405591,0.930736517288971,0.935265640796094,0.934151122163724,0.929971161628259,0.926019685569729,0.922976361825196,0.920324669663506,0.917561910284305,0.914831822834573,0.910306879662538,0.906118024077695,0.906505451120555,0.9048778159135,0.89648373998898,0.898600071527015,0.906762136171678,0.91643280109095,0.925031983119709,0.933084757859898,0.93955404843157,0.94534771962202,0.951268090150056,0.955489864267331,0.956829541012703,0.956099628430018,0.954393980534459,0.951840669293264,0.94831880859859,0.944233410661434,0.941222427276739,0.939433804314899,0.937588866793329,0.935836273191999,0.934881478357255,0.933524275271624,0.931991024494888,0.930395140183616,0.928319086152315,0.925463344667111,0.922091340969013,0.917895149367089,0.913681624440227,0.910207897362692,0.907252297210724,0.90417172618773,0.901758402022871,0.900713522620161,0.900798969954455,0.901903828775056,0.904770558970671,0.910789040921403,0.921388482908644,0.936790916371846,0.95571192926924,0.976829238193559,0.997343590207608,1.01342869921561,1.02443905079927,1.03283401026484,1.03845969804917,1.0423092340695,1.04613670770234,1.05020849568867,1.05425630255052,1.05828413525853,1.0618589296256,1.0650501621222,1.06765270412354,1.06993539503154,1.07130944104345,1.07156506875239,1.07156412108085,1.07157844058444,1.07107371424983,1.07064047800835,1.07008508190763,1.06916048174364,1.06802506205967,1.06705993778599,1.06604385297553,1.06513120354176,1.0643562785881,1.06286327063274,1.06121725873252,1.05965075092913,1.05808553347122,1.05572187456933,1.05336031282196,1.05036966023901,1.04758019743323,1.04563221942411,1.04447265379779,1.04432138343497,1.04414567879211,1.04401447516062,1.04381655872119,1.04403489236386,1.04430101894601,1.04416083692045,1.04425962932416,1.04443216437346,1.04463326288321,1.0448616434912,1.04497901021979,1.04557953628486,1.04633528634528,1.04650122936609,1.04623161222598,1.04612128400637,1.04570178784822,1.04470012616076,1.04375437909082,1.04281120834498,1.04252814045737,1.04114161501296,1.03962130312505,1.03868903244231,1.03712153866375,1.03581636231556,1.03457458813209,1.03334407165776,1.03172604055378,1.0304713458847,1.02871831590903,1.0273274874207,1.0259620415078,1.0246353092034,1.02312393397482,1.02201944602561,1.01967786205035,1.01815973396798,1.0160841939164,1.01444650188739,1.01292420557239,1.01096534297133,1.00952208936293,1.00796642984412,1.0062748114301,1.00407102479916,1.00192221297454,0.999998719090085,0.998144532304205,0.995905984449626,0.99447222776902,0.992738963585476
"11-E2-Qu-Mar",0.551497252954869,0.562458052845801,0.586820358250132,0.610820341050111,0.630573652139925,0.638954048282314,0.640695724065128,0.638567707816099,0.637346387872952,0.638800188250324,0.63217986442101,0.650600892201184,0.664064698314759,0.688503657215904,0.726615154407634,0.753837284356146,0.756821625880371,0.750197255302777,0.743640199735042,0.739840754850452,0.736950852320038,0.733518718348665,0.728763970393393,0.723977681061795,0.723856006703923,0.72770176191726,0.735658661177113,0.748094899896782,0.76219040339808,0.770854815201592,0.769126708481025,0.761377979389607,0.750572157879139,0.732007986602441,0.710785671065357,0.694778952009054,0.684699646120665,0.686871271481661,0.716184067531262,0.784163083853908,0.859160999028712,0.901442114761102,0.918671371591146,0.923224738394211,0.921458092474534,0.91720346717817,0.912496374522506,0.90948469316865,0.906434286359241,0.90372644726004,0.901376849381936,0.896693818131028,0.892623587710667,0.893024616646584,0.891209760395556,0.882716599244912,0.884790318937397,0.893859343088843,0.903639324967519,0.912981025126492,0.92131252303455,0.927781094644344,0.933859736395768,0.940342522175411,0.944772846912752,0.945805259777387,0.944402097481328,0.943105815112832,0.941077487236965,0.937527072699463,0.933704913312066,0.929903979808667,0.927695075438481,0.926522800243095,0.925449380624083,0.924423502183674,0.923477989848036,0.922015113113179,0.919985208847491,0.917397861284304,0.914307301759262,0.910825474568696,0.906976628619669,0.903382540808282,0.899799197377387,0.896391210152351,0.893196701840449,0.890919885692267,0.890562643590602,0.891265239213319,0.89262773500005,0.895415968111341,0.901723984610949,0.912508725816452,0.928770966910986,0.949260922671883,0.971299524951829,0.992176278285892,1.00891532671934,1.0200740770932,1.02920957915949,1.03554752034195,1.03901879837868,1.04198029340097,1.04596135949788,1.05021778656059,1.05450077416594,1.05882619123834,1.06263673027932,1.06519333556239,1.06730174112586,1.06900994201604,1.06980884100351,1.07008964314919,1.06978703099687,1.06958190341154,1.06891347344992,1.06803101546127,1.06700502601451,1.06581477881651,1.06482932145052,1.06405110191176,1.06291759907865,1.06183655291235,1.060419639845,1.05876069057804,1.0574313430188,1.0555478689595,1.05343966603556,1.0508581271194,1.04756552308267,1.04489694677951,1.04313968432243,1.04193574503326,1.04144522299078,1.04090047060934,1.04113456786163,1.04072923677562,1.04092597048694,1.04107631737356,1.04151006845199,1.04194623127104,1.04203761684275,1.04212228173378,1.04254246948093,1.04353178995507,1.04432843505269,1.04480326408653,1.04463305927294,1.04433297478876,1.0434540886256,1.04278200641806,1.04226750320437,1.04168337988602,1.04057955368454,1.03999121536418,1.03894880893809,1.03714480427402,1.03585012962879,1.03457504206002,1.03361626459029,1.03204553715181,1.03047632368544,1.02865717961174,1.0271048262157,1.02553181330476,1.02408094195012,1.02250855932102,1.02088135905338,1.01888474765981,1.01733205401873,1.01586784159468,1.01469130903796,1.0124769172041,1.01100755039772,1.00947092265192,1.00724620317857,1.00535717238564,1.00305766011112,1.00139462316931,0.999746217512109,0.997787240946064,0.996451674601856,0.994795121938303,0.992241019717584,0.990751682794314,0.989178259122504
"38-AE2-Qu-Mar",0.567902002918504,0.578556555057719,0.603403318459023,0.63035988244721,0.650707898891131,0.660129752888549,0.661711035076814,0.658025362057946,0.655404643383094,0.657408218061762,0.652152480229232,0.668565290542654,0.679440504588888,0.702428398961607,0.739851846544572,0.767750815441745,0.7710947065954,0.764756028166661,0.757848011001164,0.753752332823516,0.750336417826035,0.74662134129694,0.742215644101567,0.738120731109401,0.738552004774678,0.742433009007272,0.7500988410371,0.761899902909733,0.776482313973281,0.78582980697157,0.784599199156994,0.775912831207392,0.763285054719222,0.744181244062014,0.72318417735975,0.705585688701335,0.69243054715362,0.692359181518006,0.721200846086045,0.789957788044502,0.866223792406834,0.909457190735268,0.927375763307179,0.932590905816364,0.931533340830384,0.927515352359251,0.922872082860492,0.91935250799598,0.916641927309668,0.913413935181101,0.910532882500157,0.906781731282188,0.903419535648154,0.903671726478216,0.902045759559288,0.894434932402059,0.896002079949914,0.904510643077055,0.913549822364988,0.920539231535306,0.928019143770299,0.934395194440455,0.940336021888826,0.946069250393082,0.949818384220083,0.950346898133154,0.949051046412599,0.947122636752333,0.944946813801679,0.941699534058733,0.937832589932702,0.934330691203052,0.931808736019235,0.929815501206628,0.92804773551907,0.927060084940028,0.926016323216854,0.924276512207236,0.922692075326303,0.920054598272179,0.916653562208991,0.912883545079683,0.90877257775508,0.904760011698078,0.901269427181729,0.898348620494361,0.894940789561978,0.89260074605857,0.891983573612946,0.892617929028838,0.893783053482859,0.896555521901459,0.902052690653988,0.911858533872494,0.92688651171064,0.94572686893902,0.966642410176023,0.987493905210042,1.00349809332699,1.01447199755933,1.0230513503899,1.02839190098056,1.03163939295756,1.03410838622123,1.03692893271894,1.0400950031971,1.04379563564435,1.04739167836416,1.05056914914129,1.05309685750238,1.0545950909207,1.05538105819579,1.05556781052079,1.05533793707831,1.05523640483615,1.05489592187529,1.05430689354523,1.05344345438925,1.05261271703517,1.05134615822227,1.0502216423639,1.04909836728208,1.04851475847821,1.04750807755867,1.04571556276302,1.04384785812484,1.04215196580016,1.04002804820784,1.03806591035377,1.03572214114118,1.03322990812589,1.03040410997214,1.02877108900531,1.0276523662026,1.02671099622648,1.025791611523,1.02504824565617,1.02467750201513,1.02490878441152,1.02497443760847,1.02535451622974,1.02557837166322,1.02534086633584,1.0254707910578,1.02595549529091,1.02605480159481,1.02671922407493,1.0271941944212,1.02674847569095,1.02605958343569,1.02509673050698,1.0244367821468,1.02354250441218,1.02312641113465,1.02242724924597,1.02149991461373,1.02006202110611,1.01875547245751,1.01776241113906,1.0166716114311,1.01552811377447,1.01401282900295,1.01300803219828,1.01121231508941,1.0098708809754,1.0081028955574,1.00642313381949,1.0048587774505,1.00319754145957,1.00148120283565,1.000343350273,0.998537451521202,0.997042015303454,0.995023309762404,0.993367617541202,0.992075485569582,0.990681783443695,0.988955393196312,0.987176982502477,0.985787518114252,0.983714972837285,0.981667090767071,0.979642659146376,0.978613465994381,0.976715120141714,0.975332330987565,0.973510586389183
"57-AE2-Qu-Mar",0.604042783855909,0.615293629645262,0.640749376226239,0.667154955609927,0.686252061768051,0.693588709748635,0.694321598064783,0.690479032272376,0.687846928804557,0.690407156499022,0.682509983903907,0.699290509197208,0.711884188373718,0.736294307564646,0.77516503595418,0.803387632104279,0.80732547128471,0.800952831773027,0.794372320208785,0.789739544809771,0.785839626843378,0.781911869574376,0.777358296922193,0.773241021330428,0.774458056943082,0.779221655726067,0.788431623944359,0.802304836739861,0.818834765136426,0.830286773357013,0.830434328862748,0.822304163936377,0.81004465528213,0.791786133668272,0.77073053311609,0.752458341880141,0.738015015421561,0.736522410237631,0.764535511198881,0.833022421458127,0.908060275138275,0.949298670076146,0.965009315304935,0.968906541883397,0.967308213408463,0.962981428809858,0.95879471049356,0.95536397220197,0.952340424297395,0.948720311912295,0.945716637971166,0.94132714924256,0.937144966856716,0.937105190975454,0.935309123747031,0.926908046930978,0.929718462649754,0.938893510195597,0.94877737422687,0.957559726075538,0.964988889768066,0.970950891017587,0.976668207496255,0.982360067352331,0.986486120870241,0.987629903240565,0.986772286611426,0.984881525586447,0.981888016846754,0.978409334140237,0.974722606051345,0.971041254816321,0.96820020009179,0.966054756629695,0.964693710558126,0.963824300306042,0.962857283272204,0.962145346149656,0.960304666170244,0.957603043883429,0.953952276700585,0.949830452315536,0.945765852240305,0.941754984216614,0.937898944673722,0.934703703462934,0.931485711663283,0.929079836397561,0.928056855993285,0.928097565130154,0.928854965733421,0.932008712219565,0.938196533626564,0.94848417035278,0.963806227266114,0.983031145696178,1.00414716366015,1.02390309510691,1.03959200317226,1.05036427509103,1.05867344374098,1.06409015881754,1.06765433444935,1.0707359086166,1.07432853077846,1.0778437843566,1.08135151489863,1.08502038632331,1.08842522479778,1.09103462753612,1.09300661682156,1.09381069682502,1.09384498027798,1.09371419955785,1.09351032332424,1.09309347556286,1.09219461637148,1.09136931626487,1.09035950688883,1.08905177011471,1.08770441588864,1.08651896323515,1.08551278467936,1.0843207258166,1.08298340930986,1.08140752176071,1.07995626535288,1.07827710539122,1.07613251597008,1.0740335599209,1.07134725229748,1.06844504526057,1.06605351160428,1.06487636311726,1.06424552479906,1.06380660474022,1.06351480883657,1.0630780599215,1.06283315699195,1.06270621436193,1.06270405945588,1.06309420366431,1.06336248911699,1.06382324287418,1.06445208770847,1.06521416204003,1.06553866187936,1.06576116896669,1.06585531488311,1.06603778392943,1.06565039777914,1.06516830414165,1.06403502580008,1.06331671361713,1.06238276972038,1.06172493894499,1.06027129858359,1.05899405021824,1.05778086740516,1.05648633750964,1.05503911576397,1.05372228802573,1.0527936707414,1.05107103632551,1.0497901810826,1.04830068965863,1.04716793105179,1.04556497030253,1.04426828970368,1.04275184683074,1.04187641690168,1.04017197676744,1.03920214532098,1.03735546960729,1.03545987661574,1.0340774799024,1.03230752141657,1.03113712858962,1.02930359887897,1.02804326991053,1.02593385026773,1.0244657146434,1.02247314432095,1.02039972792965,1.01824973599266,1.01714733691158,1.01539831783903
"29-E2-Fa-Mar",0.664066938035034,0.675749940062838,0.702431946580882,0.731821482355463,0.752564361970898,0.759239178439174,0.758390264377037,0.754258029760936,0.750554616143131,0.750527316623385,0.748520472004541,0.761701145036838,0.768508553904106,0.78795919741713,0.824552735234337,0.852658924592898,0.856284155392351,0.850164226381071,0.844199600010218,0.839909296615974,0.836895144241974,0.833145166525601,0.828399276484501,0.824261300829064,0.825416461143326,0.83018101153446,0.83844176406373,0.850303282957028,0.865206098854725,0.876481757296265,0.877997439783085,0.870478643777092,0.857911391687209,0.83937370150885,0.819894218561717,0.801695765232328,0.785818394935869,0.781418193798927,0.806413651664558,0.872181342417684,0.942626780622383,0.979738013918225,0.994080793490741,0.998061927681706,0.996828575890682,0.99299869874588,0.989264900263873,0.985873714448935,0.982257236597124,0.979115728943969,0.976668605299298,0.973661220723861,0.970889754877133,0.97135147135803,0.970564444215813,0.965175730231863,0.965277899926192,0.971705028256128,0.978695231628556,0.983593513160021,0.988343080780864,0.99242735633224,0.997260630709142,1.00343048418022,1.00779842221922,1.0091233703742,1.00873844610677,1.00789897291904,1.00545625576401,1.00253423202174,0.999053671462741,0.996096679670914,0.994278632208839,0.992301626653646,0.991081846889208,0.990138302556031,0.988844863319361,0.987408180940719,0.986232952418857,0.983937148609861,0.980998493471783,0.977434784335595,0.973402223097836,0.969895913964909,0.966079432792344,0.96316534932571,0.960172811230767,0.957521754116555,0.956157914241002,0.955834462444238,0.956143244199675,0.957894349897571,0.96285288877194,0.972172254500593,0.986732890138663,1.00458846046616,1.02349013477033,1.04154763655043,1.05554267607338,1.06504933059953,1.07229782173659,1.07658868254007,1.07898337463404,1.08151307187329,1.08452993189264,1.08745957054671,1.09023394465736,1.09337475906044,1.09621811832018,1.09846704914982,1.0995005686718,1.10087612985471,1.10162758907985,1.10155440152306,1.10097034362413,1.1003463387047,1.0994486353966,1.0985399420641,1.09774124383331,1.09657140154836,1.09566186713144,1.09507798124626,1.09430836514163,1.09328178453405,1.0917594169846,1.09039217833012,1.08846988899158,1.08683345432195,1.08507833092912,1.08315597379843,1.08132569777441,1.07902738334702,1.07719800279507,1.07535958760852,1.07418352204283,1.07278796474161,1.07179952257289,1.07152285608105,1.07098817587932,1.07062124782976,1.07000846773801,1.06971122482193,1.06944340895743,1.06956110318201,1.06942913899881,1.06921423198792,1.0692443479283,1.06892555942323,1.06863602210779,1.0681093259227,1.067423468717,1.06678002085549,1.06616166205357,1.06524627333247,1.06401154382797,1.06276954901906,1.06157742004929,1.05980581277431,1.0585361119493,1.05711478003478,1.05591641027505,1.05422007434767,1.05238996174314,1.05065249830117,1.04855386561474,1.04721103829077,1.0458254041695,1.04399270558632,1.04237028407327,1.04058284319485,1.03854601963092,1.0369535175444,1.03513751103005,1.03348442020797,1.03132224299702,1.02919094911817,1.02783823555681,1.02631575673074,1.02514946772924,1.02318932202362,1.02091272154321,1.01882199411396,1.01709246992143,1.01517239720014,1.0138749190394,1.01180863552193,1.00961135942321
"12-E4-Ca-Mar",0.603519566027208,0.613930745227452,0.636427550826216,0.659552902469328,0.679446852915972,0.689816279565684,0.6928447227102,0.690159002825328,0.687953575957152,0.688238672233788,0.683361807440868,0.698095267758468,0.709333509634392,0.73087634574912,0.764495638402776,0.78734762378916,0.788785873321872,0.78200449545714,0.776245144447932,0.774547165341084,0.775488385227888,0.773155325842464,0.768030174305712,0.762978261312624,0.7617444100041,0.762494447925648,0.766805728670784,0.776150850128364,0.78650648048862,0.791303509996668,0.786575354732148,0.778160471284368,0.769253902908516,0.752425831236504,0.732938937774588,0.719315308923372,0.712387592457096,0.716154369704808,0.743765741354616,0.804565254658632,0.86842356946296,0.903908761002048,0.918354990158496,0.922599537652608,0.92155444366644,0.917866930635264,0.913819475526684,0.9104904307782,0.9074915114214,0.904329653435856,0.901428468337548,0.898385550174816,0.895605204198168,0.895377670513788,0.893755303332072,0.888424156931652,0.890075326644744,0.896339350048284,0.902565578535012,0.907478987248884,0.912823073621676,0.91816228462128,0.92215203180174,0.925478714985144,0.927683037620424,0.927844216749036,0.926432976111336,0.924530732128524,0.9223723526373,0.92016348954066,0.917466872662692,0.91473009741906,0.912668846867592,0.911240658275712,0.91015372051878,0.908868524321448,0.907519454724408,0.905586753687564,0.90351761760942,0.900828637200636,0.89818019710656,0.895296707191992,0.892176807887304,0.889610350806516,0.887571693303072,0.885682020587076,0.88312694166042,0.881455693107,0.881248737519612,0.88164655431726,0.882619737419436,0.884813953903356,0.88954210637076,0.897338657528892,0.907878389326296,0.920437537665768,0.934275443641128,0.946967979535476,0.956256619514676,0.962271507221136,0.966880785569412,0.969724954711848,0.970881872714808,0.972223334384664,0.974004974546064,0.975431705783424,0.97656082011084,0.97825410023406,0.97963362157632,0.98006798828874,0.980464761134196,0.980599349736432,0.980397126755148,0.979855440124788,0.979301321227152,0.978344084197872,0.977211923754048,0.976148494900836,0.974617001508324,0.973127026736112,0.971302875491988,0.97005687893454,0.968994720999504,0.96788864337696,0.966593638093404,0.965620687665612,0.963973307987616,0.961953263064876,0.960078194662356,0.958401847251888,0.956236968861432,0.953926580158272,0.951883150204092,0.95063008544868,0.94952776857714,0.948018297050148,0.946833843495192,0.945614223513288,0.945007184950536,0.944085028436784,0.942977200561716,0.942529061078448,0.942242910403248,0.94162574148552,0.940448764678716,0.939726122053776,0.938723937082896,0.937819643066088,0.936890572424088,0.935755927570416,0.934995171557028,0.934163685841776,0.932875550275116,0.931779032452968,0.930413754539136,0.92916113812146,0.92741719994412,0.925367645561748,0.923855301967464,0.922566552919056,0.920683644771228,0.918947025276444,0.917215678744908,0.91568119135368,0.913826149502544,0.912347717914308,0.910821383659548,0.909173351853936,0.907572626472468,0.905811500017308,0.904104431025552,0.902400636486204,0.900426815104128,0.898766588557764,0.896975554139568,0.894890255754336,0.893064653092428,0.891416308923168,0.889313844922464,0.887588980964136,0.885628422535704,0.883571536798128,0.881752446507276,0.879640024145688,0.8780349172818,0.87668349896358,0.874605113222412
"45-E4-Ca-Mar",0.610683139522263,0.619879505673587,0.642657346922955,0.667304899025196,0.687953745732105,0.697398717167311,0.698944642656806,0.695043454231604,0.691591451785473,0.691383146878799,0.685989808179278,0.702002887159062,0.713596702111293,0.736512331852695,0.771274509493079,0.795833492537106,0.797891475060362,0.791436044002513,0.785172752580182,0.782875883121571,0.78301817922427,0.780164804493108,0.775029790073766,0.769838889938778,0.769685255762798,0.772041859469028,0.777373222099383,0.787121566656095,0.799644931781059,0.806752015943374,0.803840606365319,0.795689358410447,0.78534098206324,0.768030699476825,0.749161177151546,0.734161940987805,0.72378304191251,0.724956469869268,0.752405043229533,0.815188476433786,0.880649138109673,0.915799746003756,0.929638787488593,0.933095626201409,0.931870612558147,0.928317103925586,0.92483337695741,0.922269561842743,0.919850259565874,0.916983049717667,0.913940407808144,0.910293092997515,0.90626725849337,0.905633524885863,0.903711408325862,0.897955524052314,0.899970584841237,0.906424857152531,0.913055049238662,0.918407262711507,0.925654028450447,0.93183053572121,0.93653401365524,0.939714691211307,0.942006242401884,0.942968774010138,0.942469647921313,0.941450408339031,0.939479641678021,0.93699177166173,0.933625231794255,0.930543039038761,0.928493717699923,0.92666952485206,0.925438647339968,0.924548715204842,0.923517898580254,0.922306961437487,0.920469747133255,0.917828973039058,0.915262937832653,0.912060901404084,0.908952783865934,0.906529356811726,0.903860070556341,0.90152744407643,0.89912465739766,0.897597354650098,0.897166047122789,0.897638884381023,0.898680225653767,0.901229889126374,0.906147982798672,0.914285287399666,0.925972081324961,0.939712264303597,0.954746729966575,0.969062372442357,0.980241632785529,0.987189681588997,0.99229632447259,0.99554672574688,0.997751896936806,0.999569665887395,1.00168014015369,1.0034119061659,1.00511177275758,1.00700050726445,1.00912819572163,1.01045266117148,1.01100135019001,1.01154027781262,1.01153958881863,1.01161905532406,1.01150675872624,1.01096621497106,1.01018991572877,1.00902904353911,1.00779206189362,1.00720134500739,1.00643964325104,1.00542309033309,1.0036981066717,1.00261826942045,1.00139297069856,1.00004009225556,0.998908055995372,0.997458779225807,0.99554087459794,0.993379271795592,0.991357574699026,0.988760161646439,0.986695897617999,0.985525225931633,0.984555273563691,0.983351847927597,0.982426193044205,0.981629861036723,0.980814865183221,0.980378933387376,0.98011345540629,0.979644184840264,0.979447778918643,0.979489620640178,0.978689825996246,0.97790966685652,0.977431436895345,0.976764887976423,0.975805184011271,0.975041672202939,0.974417582037945,0.973417849877655,0.972443814130903,0.971419936264653,0.970039244488803,0.968891752562381,0.967314244825155,0.966067483233899,0.964928793411776,0.963078830186575,0.961673985167054,0.960424301711295,0.958673102653118,0.956718323243706,0.95486960391765,0.953598590326917,0.951879897062856,0.950283048027745,0.948820349301973,0.947170158764568,0.945453588603092,0.943763696406588,0.941595766872784,0.93954938365164,0.937806550158239,0.935905651197528,0.9341045601414,0.932462015847271,0.930355166219343,0.928953112273243,0.927089628807137,0.9250051603539,0.922953359048926,0.920786627304669,0.919167217956431,0.917538005519294,0.915176096029366
"72-E1-Ca-Mar",0.595956016077008,0.606160232168009,0.62903064255408,0.653925486768535,0.673593229230308,0.682873121685573,0.684185179379589,0.67935711924379,0.675630131849453,0.674285872826047,0.667554180120134,0.682927364196456,0.695581672274883,0.718968266134451,0.753260470213522,0.775951617026576,0.776896363870316,0.769882009669472,0.763395469231586,0.761145689848918,0.761109221953093,0.759142416660484,0.755940591614279,0.753128395028844,0.754277458148281,0.757652686184756,0.76288038485131,0.7720075479805,0.784031009836229,0.792444468186581,0.791546623799933,0.784603277356054,0.774633454225327,0.757829954055572,0.739438747239885,0.724326006850388,0.71312282945079,0.713347787198222,0.739382637566286,0.801934665233524,0.867522629621472,0.902521947317824,0.915921788094971,0.920139139112061,0.919364925234499,0.915781219514089,0.912081624736328,0.909139317742922,0.906429082800389,0.903544778270571,0.900387704718301,0.896185665103521,0.892106213457371,0.891283761970648,0.889183792132742,0.882995444813867,0.884793950341083,0.890981691589376,0.897446340808501,0.902871058946582,0.909778102545785,0.916148076329734,0.921600594874756,0.925681675436377,0.928068835828021,0.928558615494511,0.927859402505997,0.926408214410561,0.924371496826078,0.921920104067439,0.918818469618086,0.916516079577066,0.914373604058083,0.912426407717303,0.911164437979068,0.909990757647804,0.908879029201875,0.907424560642871,0.905831221698474,0.903685188883797,0.900802288843656,0.897508260731733,0.893998806662602,0.890433509616268,0.887232933626018,0.884547617260511,0.882069881969959,0.8802894681449,0.879288729800959,0.879273096243686,0.880200408940752,0.882684288844848,0.887341613472638,0.895513219253382,0.907551270513427,0.921609638767795,0.936429305100236,0.95019985219721,0.960940260383801,0.967846531018413,0.972711179987725,0.97543397845554,0.977027723750566,0.978791030363835,0.980910397800564,0.982406698244959,0.984381019642079,0.986318332148784,0.987889373408611,0.988662020106511,0.989196245870481,0.989197795600562,0.988318757139499,0.987441943355993,0.986542270276332,0.985793778577935,0.985049176523515,0.983849779887202,0.982461010842111,0.980685110584318,0.979100375089421,0.977483378487364,0.976153617301168,0.974641927823985,0.972719831869889,0.971446682939767,0.969547582250341,0.967511055977762,0.965147876723299,0.963004374500937,0.960884348011401,0.958083977116176,0.956283956700451,0.954915942578163,0.953255256833371,0.95207940998982,0.951193836401661,0.950012382771739,0.949007880846963,0.948234007207429,0.947042125696607,0.946104418290121,0.945239396622218,0.944511867744268,0.943591803073171,0.943062725338611,0.942652518927186,0.941756921850719,0.941125654476923,0.940226201964568,0.93904405127285,0.937631108223762,0.935918525410563,0.934362946264441,0.932306460954222,0.93066803142965,0.929135521089829,0.92763347403206,0.925860492346202,0.924068969876241,0.922254122557618,0.920445506985264,0.91877402870365,0.91708246013821,0.915372099180688,0.91346282601924,0.911344323517334,0.909548743242422,0.907783582539225,0.905551456142855,0.903368212702183,0.901246445113073,0.899419898109793,0.897413734510627,0.895362732860695,0.893405663051929,0.891026618961262,0.888778143574813,0.886892731015983,0.885330114966541,0.883492181679982,0.881198989295633,0.879459059246286,0.876912877658991,0.875261439731216,0.873182419756148,0.870512885816449
"34-E4-Ca-Mar",0.606110923673397,0.616750289863588,0.640563321486465,0.665641228335818,0.685941708742557,0.695325869045319,0.69737083816885,0.692527309898264,0.688057940375406,0.687039235152354,0.681143707430617,0.697048446583822,0.709016436297981,0.731451315355952,0.765202535623411,0.787381662548482,0.78931599555473,0.783549273046491,0.777974982288292,0.776678960777576,0.776359939495216,0.773436807796926,0.769428397023576,0.766308722970763,0.767451637480671,0.770732260331155,0.776779364225908,0.786855714976487,0.799630785586827,0.80832837146513,0.808120451971859,0.800821724074996,0.789949827897773,0.773385370950127,0.754175747587799,0.737368473901174,0.724967323087897,0.725371079125887,0.751714982162329,0.814399438816798,0.880999404897319,0.917565773840256,0.931761977798969,0.935685154662108,0.935237569194747,0.931691835715965,0.92747630921408,0.924077480942259,0.921572114261926,0.918490034183761,0.915257060351935,0.911346089623096,0.907965579517085,0.907843308016235,0.905893933347577,0.899841097723914,0.901036511861941,0.907239020483356,0.914722428214468,0.920413776896509,0.928493860587408,0.934692265609603,0.938878199392458,0.94251599827709,0.944985694758259,0.945953452552968,0.945691215744253,0.945055345285608,0.943572750442138,0.940653681617563,0.937167659861973,0.934502588055396,0.932330633958456,0.930529461241948,0.929104029809292,0.928189535691166,0.927349941534838,0.925912296547054,0.924088637712096,0.92127737992522,0.918790522689962,0.915920292769309,0.912678929780338,0.909405578985217,0.906170770843411,0.903834561821454,0.901084656532551,0.89865194118436,0.897825814643747,0.898048156071229,0.898603193942507,0.900741250112139,0.905970499018139,0.91487865879025,0.927167878343953,0.942084790161835,0.958076097430782,0.973246942031973,0.985241407598617,0.992960007138125,0.998765209014858,1.00278815071954,1.00506411472792,1.00728614973794,1.00937247964848,1.01155760998973,1.01386511109284,1.01620549056084,1.01786389865501,1.01906289806226,1.01961611581218,1.01984500442853,1.01974071959026,1.01966923884923,1.0190068443324,1.01824707531181,1.01712558289233,1.01590014164968,1.01470923361659,1.01343651457479,1.01234293183052,1.01123181764696,1.00963730412964,1.00851070445878,1.00746732961281,1.00643321103291,1.00471093175233,1.00307339310468,1.00102671772498,0.998957157283105,0.996982835986856,0.994146340319726,0.992134171375241,0.990868697258251,0.989750920239634,0.988824932861641,0.987812420289976,0.987077315015013,0.986373088162077,0.985787762982256,0.984781324922394,0.984427989018384,0.983825853585028,0.983357583241986,0.98287020480082,0.982262837861736,0.982306138868779,0.982026698858838,0.981231813529698,0.980222247026798,0.979244690355067,0.978399377293019,0.977121345828777,0.976163171825808,0.974518747065219,0.973105752346834,0.971987938817742,0.970757747888889,0.96933224895638,0.967524036664214,0.965881726839641,0.964276274724833,0.962890480428591,0.961218774625983,0.958940118994199,0.957608133003958,0.955855492444021,0.954014675645205,0.952173843648532,0.950432003539948,0.948392124807678,0.946639258298366,0.944620271275099,0.942731219746503,0.940972307162002,0.938980024077792,0.937374240934683,0.935537498942274,0.933830333454553,0.932279208806882,0.9303207490855,0.928426780278722,0.926238244133554,0.924902358171616,0.923079005074776,0.920909188770002,0.91847393609226
"65-AE2-Ca-Mar",0.605129222720457,0.617668568372719,0.643013703679199,0.669219026098716,0.689510170528474,0.697827404457247,0.699021904771257,0.694995585026907,0.690192313477833,0.689423891052289,0.686488844910758,0.700185972567208,0.709905422686166,0.731675378985722,0.766527832458504,0.791355273768623,0.794232639761089,0.788048071367545,0.781736434497029,0.779848837004679,0.779016707204635,0.775438641001766,0.771887544301185,0.767834185197312,0.768686042928532,0.772793626848814,0.780757918567109,0.791914998238753,0.804964090710916,0.813617161993127,0.813540073116711,0.805804765019964,0.793877809159452,0.776203218501685,0.757097186330146,0.740017383391427,0.726200608318473,0.72463116921662,0.750803646324857,0.814298626878148,0.881583297496741,0.917770031649509,0.931779709259823,0.935891743003186,0.934817072727383,0.931245872450465,0.927532258272581,0.924639317190123,0.92242860924496,0.919537785214946,0.916829074384753,0.913784422833692,0.910715369890664,0.909903780422423,0.907980815725355,0.902982782798201,0.903797143210966,0.908945826100622,0.915043052738854,0.920675027714743,0.927113258364006,0.932460508668991,0.937136398151849,0.941329709664345,0.94415925258808,0.944352071734106,0.943704631577428,0.942337641636374,0.940353333954412,0.937045421810926,0.933826446141662,0.930967726179755,0.928752268474571,0.926611265756207,0.925446631064663,0.924730291817121,0.923703236811371,0.922620070725685,0.921169727983777,0.919352921874108,0.916684485512486,0.913214057014615,0.90929192200664,0.905613798849808,0.902031738373403,0.899437075920118,0.896700985486665,0.894883128267934,0.894210461966577,0.89386129819324,0.894553130849257,0.896707113301788,0.901627038689845,0.910629689460948,0.923324009309433,0.938429281623941,0.954673329396742,0.970252003443354,0.981703761200665,0.989354853505581,0.995128523656696,0.998382290651752,1.00011101908201,1.00214867186386,1.00419807933694,1.00605866820222,1.00855101699373,1.01108676148922,1.01327075276564,1.01429490970089,1.01494111116232,1.01526130829661,1.01507095229775,1.01464623030156,1.01379510069312,1.0130017630526,1.01225779745564,1.01117444419748,1.01004953421817,1.00933014897063,1.00801960467957,1.00634691587628,1.00549782666645,1.00476857766018,1.00337209709171,1.00181246495265,1.00020817430122,0.998444069978407,0.996341550617497,0.994335370529109,0.992396050255893,0.98987971850661,0.987746463558354,0.98643981791561,0.985153179219273,0.984326022580557,0.983429747645831,0.982419308260079,0.981142381906035,0.980209714484611,0.979625077104441,0.978933537943368,0.978603814752752,0.97786033236455,0.977576523461704,0.977304970070903,0.97720243223951,0.976796321522562,0.976028080536704,0.974726259121084,0.973787013003961,0.972664185384879,0.971708873226796,0.970717265862055,0.969263324586071,0.967953863377642,0.966530726837027,0.96492643074831,0.96359732369982,0.961913855428844,0.960163718593126,0.958371657192407,0.956932148586501,0.955717145351541,0.953213194999167,0.951353106127287,0.949828425772897,0.9478208469441,0.946038252026034,0.9441846031401,0.942767201925698,0.941178856690337,0.93923202682354,0.937491652802263,0.935617208977956,0.933832428509533,0.931668363506827,0.930285158590608,0.928812544806874,0.926957038203136,0.924897166447332,0.923210063177039,0.921134438851315,0.91892270136891,0.916866760235,0.915435450220675,0.912672203585269
"13-E2-Ca-Mar",0.594891354619858,0.6047905216784,0.627147545204822,0.65191422080267,0.671640393803174,0.681112578105536,0.684236779734646,0.680923445047107,0.67820247632144,0.678598777349961,0.672272200595629,0.686770945916996,0.698971821096057,0.72224070328448,0.75570934552716,0.777024182269564,0.777908482164962,0.771086267017687,0.76510054240229,0.763613734687308,0.764258214276658,0.762940623063309,0.760282519260469,0.757093914011253,0.756942524003089,0.758449454865833,0.762119708222608,0.77041312490182,0.781126991085314,0.786790956781055,0.783330043454556,0.774362017109889,0.76393793135752,0.747497649279113,0.728748629734071,0.71402787398377,0.704397176852996,0.705953761094917,0.733271825469729,0.796402672153457,0.863385190638672,0.899974637807812,0.914507349242068,0.918594521154502,0.918260847908874,0.915263971466764,0.911982714280672,0.908613208149075,0.905211682359216,0.901904211189228,0.898917046007131,0.895383199845727,0.89158090237144,0.891103539170642,0.889167967113904,0.883819435045492,0.885146664372633,0.891366576749566,0.898138607422427,0.903342183552169,0.91032707326803,0.916386972548161,0.921036699882858,0.924020846826904,0.926264486840701,0.926884936554623,0.926184867607535,0.924903386245225,0.922872080174782,0.920071802045297,0.917173247485648,0.914570595199033,0.91276668434134,0.911304882698345,0.909896791166191,0.908824915353225,0.907470806131783,0.905860440288726,0.903937207102966,0.901515831479591,0.898383295349665,0.895135719057591,0.89186109470914,0.889097849180834,0.886631288550155,0.884121814841787,0.881531987183294,0.879100709069076,0.878012503262373,0.87843381481675,0.879436267614294,0.881773688677669,0.886206292219214,0.893992718566028,0.904683204624951,0.917300112382495,0.931271114515253,0.944860264025194,0.955613944193488,0.962632625065157,0.968136065240843,0.971071272795054,0.972302335226757,0.973542121530142,0.974805734087235,0.975859382387287,0.977526965362725,0.979263315036128,0.98014745402126,0.98067149775838,0.980915364803439,0.980331257797925,0.979878850306142,0.979314098498721,0.97849496126536,0.977839489414968,0.976665378196872,0.975278529903244,0.973984751410695,0.972705939571392,0.971431740512074,0.969992547903434,0.96850033473412,0.967370781898326,0.965791960006141,0.963862054069229,0.961756313125364,0.959549090450818,0.95781524373717,0.955949384254391,0.953927838493612,0.95142670254081,0.949746498730273,0.94804645345059,0.94647929875179,0.945242341968064,0.943946704842034,0.942987767022503,0.942006237298878,0.941021626183636,0.940459651248868,0.939489026650351,0.938515918734781,0.938026155793472,0.937221692799776,0.936361262326347,0.935805284068371,0.934956638758735,0.933721279714592,0.932772194936546,0.931313283283037,0.930043560075806,0.92889954267476,0.927537623880845,0.925992048116616,0.924350601296582,0.922785034744419,0.920838007452743,0.91993130928232,0.918412632940891,0.916620499823876,0.914951615119791,0.913610632761401,0.912277546883016,0.910559329021461,0.908789867235856,0.906965514379114,0.905018847508162,0.903974697710263,0.901545899144441,0.900120037191877,0.898582088163118,0.89696491646677,0.895113380167476,0.893170496914703,0.891221295450111,0.889170931962636,0.88685586172346,0.885227155935866,0.8836879991665,0.881731238516773,0.879688529401593,0.877977781191001,0.876488324223822,0.874795437623738,0.872849673460518,0.871134211458493
"79-E4-Qu-Mar",0.555728357588436,0.567825922708122,0.594151714594122,0.621245621739096,0.642060365175918,0.649705337960526,0.65021518050846,0.64704786607953,0.644407365742236,0.644587069325886,0.640857729672168,0.657304890045726,0.666959965565622,0.690191066420316,0.7292114387376,0.759400695138,0.764209240270242,0.757854130563582,0.750125514851028,0.74494517020704,0.741268126770726,0.73643530722882,0.730923886677708,0.726366580590522,0.72674448223803,0.731323077644946,0.74113221506175,0.75502526632941,0.771576729407178,0.784094090335404,0.785522082678144,0.778300574586084,0.765865783456518,0.74697421635876,0.726440745215568,0.708266813061612,0.693876236124882,0.692544762768384,0.721437426962382,0.789687386190294,0.863786644604058,0.905016492569664,0.921142131302292,0.925477749869994,0.92377131310878,0.919445461890222,0.914947697587308,0.911277153149862,0.908200359966504,0.905330003535954,0.903030918450444,0.899252560012842,0.89617880592117,0.896744511041844,0.895278710442522,0.887499088022142,0.88918955700033,0.898070649236772,0.907301694725502,0.914982036417966,0.922322993834676,0.928508539844262,0.933899369443824,0.939320544232956,0.942974600093982,0.944270788407096,0.943358787284124,0.941449644308184,0.938568527033124,0.934925549743506,0.931107682802916,0.927444786083634,0.924622386443988,0.922733667391038,0.921201005592558,0.920061623373678,0.919064537326668,0.91800281049816,0.916639583427132,0.914460827310018,0.911328363297468,0.907324563969762,0.903563807614752,0.899881542681846,0.896435154726474,0.893196746368896,0.889815890099502,0.887550280500972,0.886952767601802,0.887719103478162,0.889394721725694,0.892418225818422,0.898429958914734,0.909826484301834,0.926496658783998,0.946683769844472,0.969008120500008,0.990491991806898,1.00729220499644,1.0183815290367,1.02711305987478,1.03263363422057,1.03616077333495,1.03971243185773,1.04398618917881,1.04849571174109,1.05291504770689,1.05708921634076,1.06086685266046,1.06372337624361,1.06582425530187,1.067557774315,1.06850262866052,1.06857427262314,1.06876824405448,1.06875692446604,1.06817968729611,1.06736083670678,1.06680952572821,1.06633230944616,1.06571859197748,1.06499457070436,1.06387351660546,1.06307896699117,1.06221759145306,1.06078976403963,1.05917871359657,1.05726252724927,1.0550522283853,1.05323361990651,1.05080165436475,1.04790703553183,1.04577806056896,1.04477196444161,1.04436983143653,1.04383726895794,1.04357019819187,1.0434975848107,1.04370090874823,1.04366690008727,1.04423245632985,1.04467702793068,1.04548463632578,1.04635884113726,1.04715732703133,1.04768501149682,1.04833582617828,1.04877484163341,1.04907750241589,1.04875134129034,1.04834760770567,1.04812203386425,1.04784609803869,1.04674369918096,1.04618957650288,1.045501012917,1.04442186330665,1.04322197660406,1.04230558273719,1.04070445922219,1.03900312183148,1.03714181327151,1.03609830282663,1.03445128099534,1.0331994951251,1.03193348352604,1.03036516993265,1.02868472431421,1.02791992294616,1.02614344491718,1.02483871798142,1.02335348788769,1.02158839495849,1.02014373772486,1.01819596887595,1.01675459753693,1.01549260527335,1.01311361495258,1.01137169281891,1.01000122758448,1.00827925505425,1.00619515511179,1.00462751486052,1.00286590143592,1.00076325780197,0.999766345456452,0.997232696482092
"4-E1-Qu-Mar",0.560579624390992,0.5719860804334,0.597548759504508,0.62509695354729,0.644590914938019,0.652233025478569,0.653828129522851,0.650699471079693,0.648131431167769,0.64975875478123,0.644207505112017,0.662602067697591,0.675094525488999,0.697836866932044,0.73375996462987,0.760164772560889,0.763314622325986,0.756183348092592,0.748644383125422,0.742618435251262,0.737706643806793,0.733840141500175,0.730438658656056,0.727172782709688,0.729291016982776,0.734944113486639,0.744838056809185,0.758909614501741,0.774557376722986,0.786178184273023,0.787547840094634,0.77964783998472,0.767003514603637,0.748112367508222,0.72705452655172,0.708551485743591,0.693547399376307,0.691643769556068,0.719897047421076,0.790686148262031,0.86776911843867,0.910515499945128,0.92741107646902,0.931704980965888,0.930661989071346,0.926571557161687,0.92221464850537,0.919696990527189,0.917076042137461,0.913244184854505,0.909936650391867,0.905652473254011,0.902235161830086,0.903294208064839,0.902010539203924,0.893911171287424,0.895170371286019,0.904119438590865,0.913902081274854,0.922214352001225,0.92998777202604,0.935610299584758,0.940426605251626,0.946563860655378,0.95140430435169,0.95265373362201,0.951757093518178,0.950103606353674,0.947623534543255,0.944248501070059,0.94058502615189,0.937117601923891,0.934486243456972,0.932465415853156,0.931079920451373,0.929931502430353,0.928853468929953,0.927431336426553,0.92572639801677,0.923588020617633,0.920651029155175,0.916585384233393,0.911968015904725,0.908006036355274,0.904151936456685,0.900399852886905,0.89695589914309,0.894559972553761,0.893612750802628,0.894168875810385,0.895666435870468,0.898402733729235,0.904787106751017,0.916403587869357,0.933723050069628,0.955409255317534,0.979581168293773,1.00251336045577,1.02048229576664,1.03306910282072,1.04267028427254,1.04862908628585,1.05241902306679,1.05616106203709,1.06014344593969,1.06423313564068,1.06896827244438,1.07422279694973,1.07846959983493,1.08175362246718,1.08400244968339,1.08508102283398,1.08564854890026,1.08601759199408,1.08595606390686,1.08571177546943,1.08512507291854,1.0842733381462,1.08278145794227,1.08143170052016,1.08060927249568,1.07984899256185,1.07897442109084,1.07802514998398,1.07662591063516,1.07541975143487,1.07356728021222,1.07145783314608,1.06924377056673,1.06667819511633,1.0640252259859,1.06118311174051,1.05893728756128,1.05741416890711,1.05687443697501,1.05611960013657,1.05563317743702,1.05603906518536,1.0563945338263,1.05679436296446,1.05670466439142,1.0565508657948,1.05679055525696,1.05771704137952,1.05822559302425,1.05941513206084,1.06009044440131,1.0604479877494,1.06018353804163,1.05983697995085,1.05931800033753,1.05919743941301,1.05846871200887,1.05759767013837,1.05645242490137,1.05539886816585,1.05402290357054,1.0529372831676,1.05218369999168,1.05068955687318,1.04872403418344,1.04751153757057,1.04624311825291,1.04457307382911,1.04286534891257,1.04136057368649,1.03964213902758,1.03785398619213,1.03658729652412,1.03427874698784,1.03319973053511,1.03160483252644,1.02998630408571,1.02820527228094,1.02648761719402,1.02411009839124,1.02261954183493,1.02004745157523,1.01763677697088,1.01605683863946,1.0143566020647,1.01221922544608,1.01035816780478,1.00806233064664,1.0058009511266,1.00439779729086,1.00228103991187
"51-E2-Ca-Mar",0.603013144213432,0.614851961011401,0.638794354193606,0.663916228092498,0.684038460433722,0.693065002979312,0.69481223147433,0.689914714211484,0.686143629459714,0.686083984762762,0.681571192212746,0.695128856083857,0.704960942712299,0.726874520698684,0.760622331885326,0.784116855703043,0.786455950761747,0.779673702806087,0.773462817491118,0.771627704147484,0.771277033357937,0.767976539895076,0.764055311862394,0.761073282891012,0.76219914210511,0.765691763528142,0.772231273322678,0.782765067236823,0.795243280695063,0.803348397922522,0.802344788156571,0.794160842210343,0.782615437671144,0.76522439633282,0.745652381082452,0.728680649532591,0.716144351142392,0.716348682188916,0.743820551946131,0.80721614655035,0.87427763468843,0.91025947195302,0.924723342439326,0.929028558806472,0.928390634666495,0.924895701672688,0.920793092855488,0.917324968159958,0.914488713791645,0.9115933842995,0.909077273705805,0.906111980880399,0.90288372992991,0.902458904278558,0.900569465563851,0.894758964557748,0.89617013078524,0.902230886709882,0.909390927266839,0.914834905369753,0.921938319151588,0.927853276238523,0.932217393653865,0.936338115203632,0.939564465981116,0.940437965409636,0.93944929068313,0.937877582327674,0.935494603480666,0.932599207195492,0.929486236520351,0.926966028144788,0.924829995537932,0.923249352225822,0.921865690953807,0.920716379879791,0.919381165305686,0.91795079862411,0.91674200534344,0.915110188286363,0.912247329249848,0.908886659523923,0.905407452800963,0.901983629025068,0.898523480717565,0.895781230680589,0.893179409676462,0.891268072483071,0.890473735324702,0.890438929240985,0.891349101943474,0.893349671963375,0.898901881076314,0.908398068518616,0.921378984162109,0.936963337319243,0.953553314199916,0.969362351421611,0.981386128342024,0.989205877378403,0.995003772471171,0.998501138208946,1.00104237498055,1.00294732729237,1.00498337906954,1.00732370855799,1.0095551488591,1.01174967022974,1.01339660379051,1.01463171263788,1.01524551769696,1.01541124786999,1.01539978896437,1.01533778972449,1.01507839521437,1.014315073724,1.01300404738818,1.0118946015856,1.01098109147781,1.00993943066912,1.00860998677627,1.0070926371884,1.00604815629528,1.00459416095914,1.00331791227567,1.0016614320405,1.00011061571691,0.998250811945994,0.996397703910217,0.994025966743709,0.991550706707289,0.989329284946737,0.987247144561118,0.98524246298698,0.983897769654572,0.982189629976809,0.981185275202596,0.98062112047545,0.979928611712874,0.979055383948744,0.978962003275148,0.978459284125648,0.977854670023762,0.977443847442225,0.977044411594367,0.976203717827908,0.975934585780831,0.97549012126487,0.974568634709944,0.973574324661514,0.972776714467409,0.97176108154252,0.970433760840454,0.968918088703349,0.967400183078293,0.966277714822136,0.964666102656257,0.963080582389089,0.96160460162511,0.959779653175601,0.95750761577608,0.95600099515833,0.954138286895511,0.952402473388215,0.950653351399495,0.948674017011353,0.947417904357237,0.945151344340727,0.943417079367738,0.94115239759484,0.939854291217807,0.937945031583155,0.935904752102811,0.93349264924913,0.93181617076739,0.930241531084605,0.92825533758439,0.926021782604176,0.924204562108093,0.922437739080121,0.920056347424624,0.918069928837813,0.916131955116537,0.913560680278615,0.911036256730958,0.909620375684051,0.907504382286216
"63-E2-Fa-Mar",0.6944398213704,0.70532308519404,0.732157596186264,0.762257520129072,0.782605888829784,0.789011068125672,0.78781255918812,0.78184789941708,0.77656195526304,0.774890341992912,0.772788175813824,0.784387394813688,0.792850969089144,0.813341355305424,0.851240807239008,0.880237523190336,0.884106458210832,0.877425498360024,0.870261335707632,0.865262209291008,0.862172505489936,0.859132387947336,0.8545412277984,0.850946781979512,0.852792374297856,0.858743184513168,0.867802842257136,0.88015883459376,0.894575615514984,0.905999674910304,0.90673098936048,0.898384571089368,0.884917497515472,0.865921404591768,0.845445525380472,0.825367144510032,0.807418722774576,0.80324380980744,0.829621599419064,0.897914644080624,0.971096459680944,1.00905924974978,1.02309934870874,1.0267310195561,1.02616031451686,1.02266355645461,1.01897359367926,1.01568725940576,1.01228347467838,1.00791095431483,1.0038674341254,1.00105132702831,0.998137378121712,0.997854301985664,0.997077485763768,0.991885339564776,0.99031155027708,0.995850223495248,1.00380414435871,1.0090716510739,1.01516930059265,1.0199673117817,1.02526141259846,1.03121690763586,1.03604182311768,1.038722616354,1.038937104717,1.03802060847972,1.03630882999109,1.03318093802832,1.02899646449909,1.02607625324201,1.0242888532891,1.02304699824379,1.02213912863143,1.02149691426346,1.02042424554,1.01931145619938,1.01834526956657,1.01683388057518,1.01474058138386,1.01155044485947,1.00795895329046,1.00423763927405,1.00077315138838,0.997315386800928,0.993599603686536,0.990505216677912,0.9895518347994,0.989904923596728,0.990536061360816,0.992403070594896,0.997671723086784,1.00754447314229,1.02271992447067,1.04149844427382,1.0621245063415,1.08165245257174,1.09730431754419,1.10795756400362,1.11622444214918,1.12163844171701,1.12529278800468,1.12834325944807,1.1316910925058,1.13548938701544,1.13939651140853,1.14388162915661,1.1476215482537,1.15094086067431,1.15321806119748,1.1546943425466,1.15543580645796,1.15566152083596,1.1551529345597,1.15478365863919,1.15470408010133,1.1543796201145,1.15414891260684,1.153895736453,1.1531731729464,1.1521811149151,1.1512929765167,1.15085413495735,1.14989621221884,1.1484631747913,1.14688312436402,1.14548319498583,1.14387450411,1.14199110734945,1.14033903572078,1.13827471185804,1.13661576018739,1.13545115142698,1.13410017628682,1.13304979477697,1.13256811898251,1.13302072486397,1.13313932405453,1.13309542746,1.13272371225677,1.13297418824707,1.13309095878286,1.13329532257531,1.13358276345326,1.13427543242669,1.13499354669775,1.13537389175496,1.13529183316754,1.134941631819,1.13430479174383,1.13436456601034,1.1340073822991,1.13305062659525,1.13254923351214,1.13184156664994,1.13094953562454,1.12942433192431,1.1282822768419,1.12674265325393,1.12549862767754,1.12497768057492,1.12342291204159,1.12192124634326,1.12038770118413,1.11870913743823,1.11760656429262,1.11621526557566,1.1150828353001,1.11338720955866,1.11229419401518,1.11050172202255,1.1091676191709,1.10718798490349,1.10585511366761,1.10403424959466,1.10294590198798,1.10099745892154,1.09947311219933,1.09801116066074,1.09617252635263,1.09442355472246,1.09281948254033,1.09092634223784,1.08930092646646,1.08798869919103,1.08604304374174
"30-E4-Qu-Mar",0.579977972032486,0.590349317020083,0.616730477293049,0.643826694499917,0.664767658083357,0.673044772468238,0.674274800503247,0.671403640357718,0.66892654213656,0.66998635039261,0.665628428479226,0.681649937835981,0.69125944902127,0.714403245020185,0.754102732106356,0.785342939358386,0.790127212047133,0.783724874561551,0.776760375733006,0.772745464608335,0.769857538196188,0.76490394313032,0.758989232250636,0.753691364127222,0.753613651213408,0.758278381584277,0.766460321054587,0.779356407642291,0.795107032786375,0.806167803740503,0.806858018374102,0.798743609412069,0.785914201717272,0.767077114009168,0.745217734930307,0.726027744613364,0.711761835805972,0.712134980114037,0.742376772288616,0.812174742427489,0.888878417553652,0.93181875917689,0.94848032839724,0.953587220252314,0.952762981500538,0.948877646082784,0.945375939167803,0.94111668890817,0.93777584034973,0.934947872387141,0.932498654175068,0.92862373067805,0.925403214075982,0.925856387044048,0.924541999998221,0.917477784587106,0.9196920811702,0.927855629763766,0.93655420814131,0.944879120750185,0.953400808901396,0.960135122377646,0.966171695595663,0.972016027880326,0.976070355390914,0.977674337772392,0.976964497775952,0.974840377222357,0.971913383878021,0.96812948044876,0.963827304694559,0.959765760213243,0.95673642530339,0.954690223217006,0.953523622134668,0.952496155898905,0.951568264093945,0.950272371737748,0.948509325220549,0.946286658909801,0.943375364042412,0.939896196245303,0.935585964533522,0.931900881256418,0.928195627971208,0.925017526088772,0.921883005930449,0.919932464794631,0.919629085918522,0.920414749796936,0.921755116940056,0.924368264116357,0.930616426904144,0.941832712215041,0.958500445835429,0.980015365084216,1.00377184148024,1.02598999193116,1.04339604000403,1.0559654573629,1.06588481477922,1.0721253660037,1.07608259226518,1.07961753238517,1.08386391146612,1.08882805801402,1.09330467924321,1.09846607720187,1.10331408601529,1.10688446667551,1.10911618141574,1.1107870511578,1.11182551074417,1.11231305432566,1.11247145174045,1.11236243402854,1.11203792466466,1.11157802464756,1.11125460509231,1.11055605764519,1.1098325533992,1.10902358181195,1.10810867043854,1.10755996863362,1.10629185331552,1.10493803408195,1.10355741137177,1.10181211115886,1.09958272459905,1.09733341179389,1.09467287847181,1.09184064492003,1.09024174470708,1.08946841455062,1.08898291717743,1.08891282320975,1.08864218910647,1.08845159823456,1.08853837330733,1.08891461937342,1.08986102387174,1.09020744889332,1.09030379256094,1.09089598283323,1.09196475332104,1.09273422135323,1.09396684341513,1.09491405626805,1.09551962156447,1.09542971572047,1.09516858545042,1.09534577837259,1.09504233356915,1.09447683013776,1.09382834103058,1.09292063250986,1.09183376095358,1.09030942300138,1.08932519609502,1.08796962900994,1.0865257275217,1.08489170688522,1.08367683974091,1.08232000527083,1.0808143605674,1.07923917871675,1.07764534661904,1.07562017496371,1.07426495454762,1.07230302145339,1.07095994714482,1.06922187925115,1.06762266086433,1.06600279401052,1.06430053126503,1.06270755719409,1.06087999566416,1.05870223901464,1.05730162257751,1.0562186622348,1.05386411075283,1.05223553112904,1.05034235150162,1.04894574244907,1.04708838700975,1.04588511096585,1.04378050593938
"71-E4-Ca-Mar",0.609798880423391,0.620883672124158,0.644863310431073,0.670407440825942,0.690439767150705,0.698832162169688,0.700322258165209,0.69623281871465,0.692397734975189,0.691216335852367,0.685424952414904,0.698832556777081,0.71060865530962,0.734554393967646,0.769550988267685,0.793065307212838,0.794784645909058,0.788153035223784,0.782400454551564,0.780144071952801,0.780271187286063,0.778157238895534,0.774770864302416,0.771447067997792,0.771654028805824,0.774880863458872,0.78132861507034,0.791967296592732,0.804529120288145,0.813422923984584,0.812770344029748,0.804940688717579,0.79327983973832,0.776710193994168,0.758565527161097,0.742619088584313,0.730993749608533,0.731460857479472,0.758423482485298,0.820874968642168,0.886659233186998,0.921557485801291,0.935315026370761,0.939858029104783,0.93874922830047,0.934851139622081,0.930751901728282,0.927419123045266,0.924386441130626,0.921872622381028,0.919303150711531,0.91557503130439,0.912806429426115,0.912477252329407,0.910453998608979,0.905295560708798,0.907245375733285,0.913091185780458,0.918718505425996,0.923711697836474,0.930590893414387,0.936041286849128,0.940417917335025,0.944813243725545,0.947613865630356,0.948207371672355,0.947424161740663,0.945968475545207,0.944115387662086,0.94151701370082,0.938974052425163,0.936746943180123,0.934514172643794,0.932604060186185,0.931358046832045,0.930524661452088,0.929105788343774,0.927776962258465,0.926478951133509,0.924592284503996,0.921904130309022,0.919082055145761,0.915774660511242,0.912575009332926,0.909480438674786,0.906783498018355,0.904044445311801,0.90168851289253,0.900749429972074,0.901132857530284,0.902237516992855,0.904743233928069,0.909477785357573,0.917460705425792,0.9291312499919,0.94286663955538,0.958447415814124,0.973038668036062,0.983462580103306,0.990501114511377,0.996478984847053,0.999866090647022,1.0013498508541,1.00259053998849,1.00457881191402,1.00639502952822,1.00839171142423,1.01043898261352,1.01204297208667,1.01302536008516,1.01313212737933,1.01367271053311,1.01335417420444,1.0126139580671,1.01179497287692,1.01092089702484,1.00981054021519,1.00850819348387,1.00725260952844,1.00569350769368,1.00447656976995,1.00299496211168,1.00166410574862,1.00051921604169,0.998655351192851,0.996851455101551,0.995087894589468,0.993490383770699,0.991656377488913,0.98977286388282,0.987200989811413,0.985070645710903,0.98363865065279,0.982048870055352,0.980424147672556,0.97873810505944,0.97731698657782,0.975987978561213,0.974981511604264,0.974032576776489,0.97347716831679,0.97303602528184,0.972406179126865,0.97180226635495,0.971251102801517,0.970629824707826,0.969985548090367,0.968830391214833,0.967547659427395,0.965986654955941,0.964875185727567,0.963621936901368,0.962565867553189,0.961106751041037,0.95997610065956,0.958929092115558,0.957159895982026,0.955395551743191,0.953252054180941,0.951284041836826,0.949605600682765,0.948059172018197,0.946681718169399,0.944523964758582,0.943038928730985,0.940973301600163,0.939011220464222,0.936986604589996,0.934916719747494,0.933540125159686,0.931853985355247,0.93021234218148,0.927939511057778,0.926191302702942,0.92450239952554,0.922098455005847,0.919696465406702,0.917468091317209,0.915601603482878,0.913453958795796,0.911717364892559,0.910229587267106,0.907978461438369,0.905645622727811,0.903329394350695,0.900930575301275,0.899149835706526
"15-AE2-Ca-Mar",0.60501253301798,0.61614512511446,0.639967990392612,0.665274331283348,0.684997550249843,0.693620322160583,0.695411966765333,0.691659732530871,0.68804419256374,0.688024398791009,0.682301845911524,0.695991629240143,0.706570506790286,0.727931873861602,0.761877078900712,0.784989485643233,0.78811071588128,0.782337395446191,0.776765816410707,0.774653071055486,0.774663631718146,0.772668595121287,0.76944227973948,0.766634474199992,0.767063106479243,0.770320757079108,0.776057164184943,0.786267902331565,0.799392818990797,0.808548360221167,0.808654885562891,0.80111692816101,0.789990576191035,0.773189029685777,0.754615329978521,0.737584276230133,0.724398303237347,0.723530824439684,0.749071744790963,0.811848161380759,0.877675927833394,0.913205312526319,0.927141411162128,0.9311112373457,0.930212180891267,0.926739815447196,0.92323376724622,0.920100205775005,0.91714295746791,0.914421087647161,0.911662795783417,0.908234698354981,0.905287792521479,0.904571975969048,0.902233370921465,0.896464786499782,0.898121917226709,0.904068198139286,0.910294074225428,0.915367169417339,0.921477662747971,0.926887579561996,0.93090833184766,0.935314768097267,0.938301009915033,0.939130447717213,0.938599844295042,0.9373237452954,0.935502186790476,0.933346818238399,0.930530562217263,0.928017973819071,0.925926362318153,0.923967784311968,0.922646003080491,0.921266543029111,0.920093105709898,0.91865110923056,0.916969281972318,0.915052765956919,0.912183950042728,0.90854726767618,0.904888783550821,0.901260812522817,0.898357801202678,0.895712706450846,0.892981705195323,0.890652356064025,0.889335266272796,0.889436743531279,0.890336896704776,0.892659743178293,0.897089936458682,0.904681903362755,0.91570363583989,0.929093350885731,0.94326096036272,0.956806229317655,0.966996875536387,0.973391166273112,0.978397742379299,0.980812055453681,0.982475124456771,0.983938062987268,0.985457839856519,0.987552856700442,0.989279979697368,0.990460071234644,0.991427206257925,0.991883372046008,0.991596583215254,0.99160000408958,0.991125780110501,0.990709614169582,0.990107112628528,0.989179806954312,0.988056793018955,0.986720541042773,0.98531424668066,0.98417898095859,0.983064897185954,0.981562940687966,0.980029077777306,0.978823518339056,0.977510020439887,0.975564923619679,0.974007048652803,0.972510459813736,0.971008392979863,0.969279321639436,0.967512545045633,0.965013100012769,0.962867118267322,0.960953991313023,0.959721109049167,0.958374992201924,0.956946161489967,0.955776060113585,0.955044245781661,0.95416493835359,0.95348166609497,0.952607311310466,0.951882713730632,0.951343925475902,0.950982132897324,0.949710115574834,0.948973907091762,0.94813890451569,0.947164855341247,0.94625508227584,0.945249466645654,0.94372829721167,0.942468026070793,0.940784593832476,0.939097427841675,0.937442263414534,0.935790905662022,0.934194914525763,0.933053637547647,0.931712343377422,0.929716635931456,0.927708622021602,0.92616734905454,0.924744736586671,0.923377620008756,0.92188396503031,0.920156574940866,0.917951370019553,0.915883197243959,0.914667784251149,0.912444623333773,0.910697730698286,0.908484236093567,0.90684302802997,0.905194504945485,0.903122653152321,0.90184582348778,0.899809848005123,0.898198226817917,0.896050442977423,0.894564966826863,0.892643769879395,0.890581229083852,0.888472390923812,0.886331262918024,0.884226367115152,0.882143013946313
"56-E1-Fa-Mar",0.657367366413743,0.66862338594787,0.695904115717918,0.72487459200403,0.74437379541766,0.751038428099384,0.75077179498058,0.746138220671242,0.741889242976745,0.740902099254914,0.736471795045574,0.751098359886497,0.761496620428136,0.783526601209733,0.820358804352875,0.846520447789741,0.848958001132622,0.842769755108608,0.835253851139053,0.831743031143743,0.830771073619156,0.82849729674078,0.82480377333419,0.82108931067576,0.822122390445509,0.826677813445495,0.833553829935595,0.844427033115667,0.857613050687964,0.866921700228669,0.866283053831683,0.85808240933353,0.844836388710995,0.827024889334449,0.807729997052133,0.788999310621266,0.773305509017173,0.77105816097241,0.79723088896195,0.862548375969829,0.931399815197005,0.968501493389759,0.982576812168373,0.986333926560493,0.984579616530517,0.980985615529626,0.977892763428976,0.974731473948374,0.971608440157377,0.9680116405105,0.964122109632333,0.961131801092441,0.957808779947382,0.957101035794628,0.956255630603782,0.951445118107697,0.950777452813765,0.95617435739238,0.96368556188498,0.968926431708931,0.975315027738531,0.980363631091361,0.985714484446795,0.99149720357475,0.995398707787254,0.997139899379811,0.996606170998321,0.995009034678392,0.993080190525734,0.990552411227589,0.987168827717123,0.983974472020594,0.981794346746059,0.980041139349855,0.978239325734116,0.976924021025633,0.976000452230037,0.974580545924374,0.973036296128218,0.970803272410902,0.968287205546266,0.964986044239645,0.961289314368775,0.958059612600871,0.954994274151824,0.952248955630064,0.949317309816512,0.947140256195995,0.946560609080516,0.94654919167384,0.94745208199296,0.949622348428042,0.954565325776256,0.96324300049586,0.975680547728941,0.991176163317583,1.00837854796239,1.02451585293369,1.03698456141144,1.04490894122801,1.05110740184252,1.05501588576382,1.05771168444266,1.06017122446732,1.0629058420403,1.06578268613356,1.06834914192505,1.07106064860279,1.07355506885378,1.07500177329414,1.0762173518446,1.07663018829234,1.07729876382215,1.07760250407724,1.0771942110929,1.07655591480112,1.07589340786598,1.07513990833239,1.07446226256238,1.07366820251655,1.07276327680712,1.07151210157244,1.07035666665378,1.06906740234469,1.06782529038699,1.06670111815005,1.06537349169578,1.06380064600203,1.06200007447246,1.06042794943962,1.05810625024188,1.05546790934033,1.05382257079253,1.05229377374029,1.05103181148903,1.05032406721081,1.04953997296186,1.04876947823915,1.04848497300585,1.04814890670528,1.04757050794913,1.04758378509757,1.04720796281785,1.04716966396888,1.04719894414305,1.04708742425133,1.04730044190488,1.04712626221588,1.04671967019956,1.04637023033205,1.04567720797432,1.04501044118546,1.04440354244837,1.04323791131958,1.04148241716745,1.04070747703087,1.03982557175768,1.03856724599599,1.03722269781134,1.03621071820005,1.0347200563927,1.03350918522337,1.03242756917985,1.03081363822381,1.02923126234159,1.02799548621529,1.02615341137989,1.02484115511472,1.02310789154493,1.02230751881568,1.02068627592416,1.01944529018733,1.01756779801743,1.01630295337347,1.01515368453443,1.01309966820651,1.01091509325235,1.00942376805806,1.00790389238387,1.00606187218772,1.00458523629348,1.0029981718496,1.00085246936238,0.998956145472319,0.997052158412409,0.995459076813794,0.993997088691254
"80-E2-Qu-Mar",0.546141697208165,0.557818073712378,0.583943005100771,0.611185573240869,0.631613303777598,0.638415152399241,0.639483861660565,0.635902501346538,0.633800975106411,0.635141710367353,0.629479443230587,0.647149093046703,0.659217741346671,0.682731443449989,0.719982179147017,0.74876683184818,0.75365544801994,0.746799193423773,0.739591392256786,0.735179990465279,0.730807053065899,0.724861957506442,0.719256624663913,0.715422847289332,0.717709496206842,0.723471521654245,0.732964614814277,0.74751132196324,0.764699596422275,0.777547389413524,0.779223654014444,0.771647173246845,0.758548463233123,0.739251664646734,0.71784596137946,0.698396954435631,0.683526287911006,0.68222866464279,0.710925370935229,0.780510503907091,0.855920245454291,0.897237223636976,0.913753766638388,0.918836674816215,0.917600434170714,0.912708368342396,0.908214734317128,0.904805238150417,0.901950426056461,0.899388198723325,0.896498109716654,0.892335858297183,0.888852375077501,0.88934962061634,0.887538281374918,0.8788833601199,0.880665274989636,0.889579179540282,0.899711032617535,0.90825916269275,0.915963962713432,0.922054707391643,0.92788300574957,0.934056738708721,0.938095298735901,0.9397745240583,0.939294689405805,0.937031655484166,0.933594434443377,0.929428536344064,0.925198988979728,0.921193839891103,0.918314100166444,0.916835265639013,0.915564067478402,0.914150219463118,0.912679888795429,0.911228610416683,0.909654166374231,0.907479023452422,0.904398184236173,0.9006904576608,0.896725521998835,0.89273514528373,0.888356841155012,0.884558713563146,0.881470575677455,0.879391350986287,0.878853995217512,0.878578422486452,0.879567702941699,0.882275918968279,0.888988731181427,0.900939104730175,0.918244295266868,0.940556016724899,0.964686900635492,0.987597428824731,1.00538888563099,1.0171518976582,1.02685589662215,1.03337513527082,1.03725264669199,1.0408126785172,1.04509640997061,1.04990190168173,1.0546403879855,1.05992311881411,1.0643080931867,1.06790396213541,1.07007941264842,1.07170133417984,1.07260746162669,1.07307301908752,1.0729742766899,1.07257486907813,1.07208637583327,1.07164486633229,1.07076937388212,1.06981277861511,1.06922850800439,1.068376160043,1.06758196137358,1.06635652040257,1.06521236246786,1.0638194758809,1.0621638058352,1.0606054221888,1.058455966568,1.05611670924794,1.0532197962018,1.0498940749724,1.04781543060663,1.04644244618235,1.04576278625543,1.04552771573943,1.04542758512101,1.04547066881584,1.04612751826905,1.04662147712969,1.047023921861,1.04772075092407,1.0481026978627,1.04871835070932,1.04970536602149,1.051052603613,1.05253149279971,1.05317700935371,1.05320335025479,1.05344348271996,1.05319360959606,1.05309736796988,1.05277282995545,1.0524394548783,1.05167126028385,1.051338940287,1.05034404023296,1.04931701182821,1.04830657691929,1.04738200999213,1.04576475904944,1.04464499683254,1.04329076410239,1.04181862717971,1.04034304890868,1.03873830988151,1.03751591652462,1.03547644399825,1.03377501944906,1.03268609062642,1.03084885981444,1.02938486787428,1.02747225435486,1.02627750797477,1.02433975524638,1.02232466925506,1.02110132445187,1.01952920352257,1.01783151110911,1.01553254305156,1.01426952260657,1.01271628149276,1.01089980103057,1.00869631249265,1.00698465685044,1.00524658228493,1.00375839870909
"58-E4-Qu-Mar",0.562868565140728,0.57509329217829,0.601902949136567,0.62895318020952,0.649855863548814,0.658192610751527,0.658979201711593,0.655373385042557,0.652325065385336,0.65421857902407,0.650293594177592,0.66528075271584,0.67428682035039,0.696774339653383,0.735774298910552,0.766892876564332,0.771852945839563,0.765394477383851,0.757602173837207,0.752325719312098,0.747772946423304,0.741675951952839,0.735907188008769,0.730332596528027,0.730745319859303,0.736293378262659,0.74609484256995,0.760631209658122,0.778278732666964,0.791302528215819,0.792843732821724,0.785552456160079,0.773697942970453,0.754087155938621,0.732706396284536,0.714574561694737,0.700282001304662,0.699061828902954,0.727383458306062,0.797050025677524,0.874879829688752,0.918136687642809,0.935082785289336,0.939544349823324,0.937794335616874,0.933137314736274,0.928878919675046,0.924771612044518,0.921066364131416,0.917772845801852,0.915211675336716,0.911477916804817,0.908067357082001,0.90897998957135,0.90764981885342,0.899518388139259,0.900638869342599,0.909578460715402,0.918851500396406,0.926937530098236,0.934468607839123,0.940491467094789,0.946448159685731,0.952858365079472,0.957569292148809,0.959439107641342,0.958494457702455,0.956371910669381,0.953332379560449,0.949098258386134,0.944243476473257,0.940222409990235,0.937507576096584,0.93574060334952,0.934449355651648,0.932884381753483,0.931273302720326,0.929927506222089,0.928231312191024,0.925995058823968,0.92259894360164,0.918628659261557,0.913809251041785,0.909192233069951,0.904858627307977,0.900905101278611,0.897186744624309,0.89475985478498,0.894535705902609,0.895195270008326,0.896563794960688,0.89951749035894,0.905889437740901,0.917668840344729,0.935662232487576,0.95846453711552,0.983600282988529,1.00735513655458,1.02600234483963,1.03910584624402,1.048783398682,1.05503712147665,1.05924019368115,1.06293710818932,1.06711960208208,1.07188661949228,1.0766812713719,1.08239679630499,1.08727443358635,1.09105084312801,1.09362116221069,1.09527592556238,1.09612701179714,1.09600844570875,1.09591266907504,1.09558917968376,1.09552930979623,1.0946796335296,1.09385704904431,1.09297744829845,1.09218043306881,1.09106379445457,1.09032669645808,1.08931975970751,1.08821274214616,1.08641004571843,1.08468343409894,1.08258447884392,1.08049224545583,1.07851062893993,1.07630024198297,1.07339109811948,1.07146832711547,1.07040011510342,1.07024705408741,1.06970702901638,1.06945004409004,1.06937403502203,1.07001427088099,1.07053792533947,1.0711142719733,1.07146993635638,1.0722482644833,1.07338457692911,1.07471509986789,1.07547719871725,1.07660553604075,1.07746955688434,1.07808395102695,1.07806147742248,1.07814795019348,1.07801436520385,1.07802083113639,1.07789048970517,1.07710219672718,1.076740244181,1.07564899852056,1.07451581496997,1.07357076603888,1.07262074300921,1.07115231348411,1.06975286252019,1.06924404070702,1.06827245085014,1.06669448887194,1.0652250577507,1.0636130571368,1.06217664027563,1.0606466091743,1.05953942679656,1.05757320813835,1.05639452058911,1.05497748627541,1.05344616931275,1.05232219595453,1.05036680049429,1.04874543591042,1.04723731492401,1.04586080010966,1.04381318838147,1.04282850012031,1.04114897270768,1.03946921692578,1.0377587383612,1.03577824289024,1.03339784499076,1.03174018832344
"28-AE4-Qu-Mar",0.567230773570951,0.580111580921688,0.607948219888632,0.635505096363431,0.656470221044736,0.665028789196863,0.665392925227121,0.662455333312084,0.659489618744422,0.660810007629314,0.658019148812533,0.673742740855881,0.683979667304857,0.705863865006069,0.743332183814339,0.772278289338248,0.776748380278374,0.770132133571584,0.763087803761283,0.75909481170586,0.755069282185239,0.750116896963242,0.744843894437671,0.740261127765863,0.742492856238046,0.74883203473483,0.759254964889593,0.774418417213949,0.791911281716345,0.804257508594645,0.80520457202849,0.797065641093488,0.783826010813773,0.763947783996775,0.741666717881061,0.721233879609985,0.704610372091196,0.701974191919256,0.731321176751778,0.8042686241063,0.884108202263881,0.928351941825389,0.946280575172335,0.951727742667107,0.950714314813452,0.946119286929058,0.942657797779376,0.939523942370059,0.936219533119924,0.933219153783161,0.930311024621633,0.92643039132734,0.923070073208458,0.923717057538142,0.923470078171484,0.916666700550629,0.917475149420211,0.926034144395735,0.935707538015975,0.944296196049633,0.951932431868072,0.95837658329035,0.964022878888605,0.969936839669718,0.975007435376961,0.976541905718806,0.975503122621752,0.973280437510847,0.969875306504038,0.965711925484394,0.961481626757754,0.957681448376065,0.955043722737468,0.952701488338163,0.951027322358078,0.949587337726052,0.947713819070309,0.946058292386214,0.94463305548234,0.942971092965857,0.93972962939562,0.935426738572673,0.930843776268067,0.926637279596676,0.922377747684964,0.91835876079991,0.914710952141847,0.912283651346382,0.911823407703352,0.912505735385153,0.913987811435524,0.917360966180474,0.924094564664569,0.9358703674434,0.953216589429094,0.975347021599944,1.00026764172605,1.02421846718498,1.04280037463448,1.05578737289521,1.06624312705395,1.07287582287781,1.07704242466865,1.0810017097446,1.08597132058042,1.09041931409853,1.09558656350333,1.10119965959943,1.10589926031916,1.1092304268153,1.11159662607008,1.1134272178938,1.11445399296539,1.11454767057873,1.11413939317094,1.11407371408234,1.11357747666492,1.11238006982382,1.111717090907,1.11099765995654,1.11034344759519,1.10954642387564,1.10859503549703,1.10728656976605,1.10615121836208,1.10482179662752,1.10337401030228,1.10148201249043,1.09958152752438,1.09740795915806,1.09477109852139,1.09198558907745,1.0904823728756,1.08961558280194,1.08895781368709,1.08874549480702,1.08915385040305,1.08945385819695,1.0901441728878,1.09070313420307,1.09095771411479,1.09148060054754,1.09154754972449,1.09214048755775,1.09278461597302,1.09372487917189,1.09468837569584,1.09566396849089,1.09583268305898,1.09562223368875,1.09627579134532,1.09608670488192,1.09541315420231,1.09498363872931,1.09427511163075,1.09365736716944,1.09279724067978,1.09168600226716,1.09060518407324,1.08991427197238,1.08835214129422,1.08695848555831,1.08610046178056,1.08478604913698,1.08310515981243,1.08211129556296,1.08077188104785,1.07925828384953,1.07806553903858,1.07712652750029,1.07523551362732,1.07340910516604,1.07156507041681,1.07051262267706,1.06915173618092,1.06687262907883,1.06534463700514,1.06330787007962,1.06165605834231,1.05991125789162,1.05927247508576,1.05693276691256,1.05534729811763,1.05354964041029,1.0516111816583,1.04958235859231,1.04798226353675
"22-E1-Ca-Mar",0.592110672674482,0.60252780208812,0.624408482092486,0.647907093963325,0.667816885505278,0.677531337320264,0.680078608676417,0.67587695572923,0.672081026178678,0.671206626412322,0.664016253164865,0.679581503324153,0.692922065555583,0.715673817869044,0.748325024304767,0.769823278984124,0.770915928568777,0.763925777368458,0.757590100757794,0.756174534563005,0.756780835218097,0.755619848466384,0.751976786424263,0.749088230124538,0.749697992426591,0.752398531511955,0.757793030417604,0.76694000058895,0.778044877207919,0.784086896042459,0.781283058173334,0.773622630316113,0.763584711936871,0.747448027799979,0.728792879536694,0.714134893766838,0.704083166820167,0.706173589734056,0.73336632808363,0.795443162247599,0.859675283271696,0.894353775305124,0.907573590737049,0.911165430725572,0.910053723296076,0.906982423884499,0.903319433721417,0.900100084155727,0.897314458512686,0.894326806474254,0.89095871623662,0.887120294119754,0.883762621755391,0.883585922491715,0.881096363944949,0.874650489354836,0.876018761396283,0.882241100827203,0.889266662564682,0.895041825387791,0.901167457153452,0.906887383805824,0.91048288890644,0.913330984942858,0.915299745603928,0.915577245039151,0.914498889732729,0.913281514344406,0.911705557239743,0.909105905605143,0.906347860194793,0.903829713594777,0.901946425398596,0.900327404750445,0.89893537319254,0.89800541100674,0.896618545920022,0.895216508674874,0.893021967805017,0.890437669540855,0.887419272964782,0.884194566210794,0.88110085085713,0.878198426443297,0.875517982097771,0.87324255016712,0.870696900717141,0.868812880236584,0.867832366162912,0.867836100047227,0.86861868151778,0.870665354563779,0.875060782917179,0.882389591403094,0.892590426421926,0.904990966545308,0.918439740916363,0.930647461791056,0.939715279720558,0.945642176149133,0.95003348717115,0.952230613317402,0.953376925083523,0.954440033756231,0.955457147791017,0.956828886008327,0.958339028768203,0.959472793126425,0.959792048370598,0.960269099072196,0.960533961080597,0.960052299285432,0.959427238351157,0.958805920750388,0.957645935724785,0.956395118977237,0.955452296665625,0.954028272773606,0.952575821855977,0.951298067141191,0.950030815342398,0.948175809526513,0.946568719349115,0.945326864404769,0.943242863474447,0.941752297258518,0.940045282273716,0.937985520643941,0.935944505482993,0.934425625967225,0.932175435566443,0.929692433360682,0.92779604070161,0.926511513600402,0.924809763660304,0.923499385192952,0.922147173254363,0.920684002983936,0.919304860402629,0.9183497165132,0.917605114306139,0.917152170057284,0.916088762700669,0.915067067653175,0.914613851390616,0.914043443964217,0.913287307816966,0.912741839769962,0.911758323872701,0.91057191270174,0.909275905392135,0.907622916634274,0.906275635048912,0.904999710290247,0.903618796908111,0.902346599603838,0.900540271940313,0.899204812523433,0.897369326220872,0.895901942170216,0.893764267931863,0.892256660406807,0.890420530888284,0.888835947846055,0.88751615977329,0.885663134150078,0.883597294341929,0.882140026685019,0.880495300098812,0.879196476986089,0.877469567651401,0.875789449761892,0.874119380220768,0.872647099532046,0.869905477487254,0.868496522148035,0.866498650597096,0.864721458368973,0.862660915419669,0.861070093842375,0.85909419087861,0.857301210114034,0.855205092580663,0.853169999714387,0.851299741953112,0.849313713985096,0.84761330269908
"75-AE4-Ca-Mar",0.581370716530837,0.591695756667963,0.614465666231885,0.638951397172256,0.659597722223219,0.669227532939419,0.670965886832209,0.666391779739726,0.662951812216582,0.663579439157943,0.658933532630957,0.673679444977548,0.685419859605035,0.707219293305227,0.739520657976875,0.761603313718171,0.762856501087896,0.755876067608809,0.750150984101964,0.748448893441768,0.74905645599476,0.746977183934634,0.742868618355285,0.738719077458926,0.739231779932898,0.74197685107075,0.747448215941344,0.757309392910287,0.768218943080075,0.774644312725872,0.772249524309467,0.764779430959627,0.755445672560732,0.739061236105556,0.720336989623597,0.706297599037544,0.696797363723227,0.698457060695444,0.725651567996817,0.786885350954371,0.850740087028405,0.885037001044903,0.89866739165703,0.9020236686815,0.901100848457545,0.897681700535975,0.893917584736012,0.890930588703924,0.887787959248709,0.884573413090554,0.882059923412354,0.878777099850807,0.875804084479782,0.875447260667323,0.873569569181614,0.868250062732665,0.869789514007146,0.875803792009054,0.882130409866201,0.887148336805355,0.893556235751464,0.899291290717193,0.903530665342196,0.90646914653171,0.907918333495643,0.907904542380264,0.907162404632698,0.905759806742876,0.903360665331114,0.900661966379598,0.897724060718688,0.895247521131059,0.89335546781985,0.892116503996361,0.890577351691956,0.889594597828645,0.88865601029486,0.886906003572677,0.885128711964976,0.883031259151229,0.88009141505933,0.877203968947216,0.874256375333529,0.871438972430832,0.86851234532643,0.865987541961616,0.86374097115453,0.861906827551626,0.861294470215597,0.860888080346812,0.861438921844083,0.863335183372036,0.867843199980174,0.875703909333592,0.886590884349065,0.900094507278292,0.914051061862044,0.926992003048019,0.9369185496338,0.943381335418351,0.948278773158279,0.951068123860014,0.952577637337775,0.953878623725167,0.955547926007569,0.957056061287063,0.958415708786002,0.959950410100548,0.961219820238828,0.961831303524406,0.96232268953274,0.962542316671621,0.962147423423726,0.961152209579048,0.960255882160405,0.959163339940647,0.958186916107575,0.957142237955007,0.955538921887212,0.954242519782373,0.952951605593782,0.951560839545609,0.950046714723349,0.948843626636754,0.947390576818063,0.945784122572979,0.944285226342916,0.942454116031246,0.940683941939622,0.93850085935578,0.93600716002872,0.93407231219896,0.932183297725844,0.930461320793072,0.929108319439285,0.927844009497439,0.926581996795497,0.925895878902282,0.925245424900784,0.924161005803352,0.923147142411456,0.922510443218627,0.921688667596944,0.920934796450462,0.92033044519244,0.919597900596793,0.919020554528146,0.918048289046119,0.917344602346657,0.916466846146864,0.915367407164795,0.914187145129817,0.912874749134378,0.911695483292797,0.909991100939555,0.908839616063152,0.906994037527149,0.905419014696536,0.903798363350845,0.902093060723332,0.900473602120332,0.899061552215327,0.897137158701294,0.895322044297264,0.893473274244483,0.891884703127635,0.889862991099604,0.888254770096005,0.886281554140875,0.884187558028572,0.882987322820234,0.880843482524268,0.878851108279736,0.876870144987945,0.87492268662723,0.873141876462207,0.871395810979178,0.869417731773727,0.867077544784673,0.865162523556735,0.863230542276277,0.861496704030668,0.859304198846802,0.857384862667113,0.855361969326282,0.853691510663929,0.852020999782664
"62-E2-Ca-Mar",0.5811841162351,0.591083468395463,0.6151728167831,0.641241733441862,0.661468487809829,0.670773962586881,0.67323196513446,0.669334809378925,0.666524971427402,0.667227106708827,0.66175821077502,0.676463336298115,0.688149151635011,0.710352022814203,0.743669088771129,0.766874221251222,0.769512151032841,0.762683176033239,0.756368355832305,0.753866593471514,0.753214834375869,0.750231064030401,0.746575953980234,0.743647393686007,0.745016677157438,0.748464723329943,0.754867230709067,0.764940143491261,0.776275536170068,0.783067371455028,0.780457922279723,0.770950746641771,0.757495127256799,0.739680184851036,0.720208218477821,0.702994849185406,0.689698509783669,0.689656012375124,0.718359624232528,0.785791231694021,0.856874215752554,0.895354870175677,0.910808131421229,0.915366127897436,0.915269517005694,0.912252427279595,0.908868343298402,0.905818560810431,0.902769740163037,0.899223884331857,0.895526511729501,0.891885994000882,0.889032026060892,0.888887771265908,0.887028872912361,0.881440817274289,0.882673043402052,0.889001981421249,0.896728305299504,0.903133434718848,0.91123354499739,0.917524055938984,0.921483895098587,0.925317273366008,0.928193187689196,0.929169776664917,0.92836165238349,0.926924439357549,0.925297676670091,0.922874133836916,0.91984816534585,0.917111711104769,0.915168979677624,0.913494009869325,0.912509566778948,0.911870905286972,0.910553636791246,0.909028404026729,0.907448396916531,0.904819929285198,0.901838314815809,0.898550111607566,0.894687216373233,0.891177527238116,0.887811659853852,0.885039437362257,0.882531103814053,0.880591819529378,0.88002792095969,0.880393521039791,0.881800357457132,0.884387517930279,0.889437669061083,0.89841756911269,0.911126717528849,0.926904356270628,0.944314297435537,0.961199253913364,0.974178099103239,0.982949941617742,0.989932173667617,0.994281897149225,0.997269342751231,0.99965874121981,1.00246727146322,1.0051457354648,1.00787024793141,1.01012245669457,1.01225847354293,1.0135556580646,1.01481148894177,1.01567605451081,1.01602459689862,1.01586157873083,1.01531210629121,1.01453366428103,1.01360230889982,1.01242853716485,1.01157601899945,1.01045351680339,1.0092394881694,1.00790645709206,1.0065236481774,1.0054777527419,1.00441361025089,1.00339681594874,1.0016564137164,0.999172631558467,0.997203402289893,0.995353053334641,0.992742348496957,0.990439162064979,0.988348050627319,0.986780175731642,0.985477178056796,0.984682850625249,0.98390789343155,0.983064808554709,0.982556558107538,0.981895520145378,0.981673925750471,0.981162380512876,0.980320864814796,0.979662682448069,0.979289742796324,0.978948279455796,0.978933014324902,0.9785525554846,0.977792933801817,0.977062047157996,0.975826505303232,0.975034498815528,0.974035180759802,0.973099796861665,0.971458908489942,0.970118030454231,0.968583932586751,0.966837822061544,0.965398594629281,0.963414678765415,0.961570131844487,0.959592199110428,0.957951413647308,0.956389933397561,0.95449781478684,0.952746755540711,0.950037368746088,0.948407918724676,0.947095608531018,0.94560523794817,0.943491385897644,0.941092558221361,0.939193599855433,0.937330074281631,0.934726161529997,0.932632828981667,0.9306272851007,0.929261372004287,0.927097836863331,0.924590531277438,0.922659982631971,0.920359988377529,0.91819417877903,0.91580509524626,0.913660706546514,0.911462065496102,0.909140235041638
"2-E1-Fa-Mar",0.662708290828433,0.672907799916506,0.699204926549756,0.728113944906832,0.748253439553545,0.755157041378955,0.754004253443231,0.74826003196917,0.742866865952996,0.743199620736476,0.740069404032319,0.752375813715889,0.760815783019372,0.782372581036987,0.821400881678212,0.849764562808804,0.85303148260896,0.8460100199691,0.839688869062237,0.836784867402067,0.836410847891434,0.834778473939079,0.831088013173909,0.826940781102521,0.828193799353612,0.831861604076558,0.837930339107089,0.847994531178668,0.862488032437507,0.873686507501993,0.874573994765441,0.865800117166534,0.851986216007336,0.833422362270435,0.814152910519316,0.795919435144774,0.780734060573569,0.778781646002666,0.805816740568545,0.872219708596159,0.943795246134926,0.982767545781165,0.997410099113269,1.00105998738708,0.999241094894771,0.99491063155128,0.991042756082707,0.987697352834899,0.984623008300279,0.980578509989974,0.977302587844305,0.974476542560119,0.971325730184805,0.970560010433464,0.969358957911517,0.964309882224937,0.964350875666149,0.970591186963856,0.977129046715691,0.982462359900982,0.988978603089825,0.994426758856586,0.99989539356051,1.0062736008277,1.01058406342535,1.01234788892326,1.01186769145204,1.01030185516864,1.00796144014932,1.0049802813712,1.00125071536129,0.998169103990845,0.996211547657336,0.994374266763251,0.992698488860951,0.991604547528379,0.990751153987474,0.989690765606415,0.987808894899367,0.985512007510132,0.98249832644841,0.978974187891637,0.974850044968102,0.971429424380449,0.968258918819599,0.96578487212679,0.963238823263474,0.961052761455682,0.960394729617529,0.960980709311449,0.961640300111186,0.964245473423854,0.969348639591214,0.978438695746489,0.991904068754842,1.00835676551114,1.02650647598053,1.04426525491703,1.05777342260749,1.06715846189895,1.07441692046557,1.0786505062998,1.08129475456426,1.08381554791548,1.08694311787731,1.08999824883267,1.09344479639408,1.09646138551504,1.09940567172272,1.10159355786094,1.10328294360247,1.10433323735514,1.10479373546646,1.10447257883235,1.1042611088032,1.10389258543771,1.10355672720222,1.1024275578014,1.10140379572386,1.10066447824336,1.09968308713248,1.09863857734017,1.09734550730208,1.0965862308813,1.09551176894705,1.09435147479042,1.0930274006538,1.09122035251346,1.08933127388427,1.08745909151986,1.08506786987884,1.08324203830632,1.08175535339483,1.08039436063734,1.07941614809985,1.07852204751799,1.07742870767099,1.07648357671122,1.07628822356253,1.07583494970967,1.07558251376667,1.07561007919689,1.0754562427021,1.07488117953393,1.07489552983994,1.07512385130543,1.0753782890274,1.07545966484113,1.07464806779414,1.07453398034976,1.07423241914047,1.07340162440033,1.07263740977787,1.07216165411551,1.07149012576956,1.07041168503913,1.06853520969367,1.06790070274596,1.06637075300058,1.06508927898942,1.06329532705253,1.06150702439778,1.05993308227308,1.05886605780566,1.05714595578082,1.05541890727941,1.0532440736096,1.05177764793096,1.0507638169899,1.04912106940527,1.04752651366518,1.04549405867884,1.04383392711931,1.04264928411676,1.04026477709224,1.03855375169819,1.03712761384719,1.03569869406111,1.03272216341602,1.03054620067444,1.02903367728836,1.02722097285541,1.02571258037344,1.02375266401945,1.02190163051026,1.01930896156292,1.01761017555124
"5-E2-Qu-Mar",0.553726202517369,0.564416173768354,0.588512819790114,0.614326276441418,0.63384079441748,0.642521208317982,0.645482925001549,0.643252935303558,0.641050536940702,0.642436104053697,0.635126475512669,0.653455834955373,0.667075856125014,0.690031422553371,0.725924902205986,0.752971919566717,0.755848498363099,0.748776897658221,0.74150011150709,0.73763359746193,0.734680887814396,0.731016584734426,0.727816635876647,0.725547908945259,0.727032860023632,0.731849304073615,0.740257790205716,0.752240255740179,0.765809482430403,0.77452411961266,0.772446982525497,0.764008840500782,0.752142996519127,0.733560710580612,0.7124866696506,0.695254718608661,0.682752246699559,0.683069418444473,0.71189351272641,0.781165385472485,0.856480753572267,0.898678583453146,0.915891533965541,0.921165014705934,0.920767182739991,0.917052355649893,0.913214803800585,0.909797869035364,0.906492024948884,0.903408464946203,0.900968980931427,0.896863095372554,0.892721098324388,0.89355877762948,0.892376285088632,0.884008050273051,0.886426836699714,0.895120750411038,0.904408284398588,0.912218607014366,0.91987161526676,0.925732923299307,0.93107146620761,0.936865445343929,0.94146495512827,0.94340690079103,0.942489060654749,0.940840167848498,0.938235522331453,0.935021861522791,0.931630048140894,0.928689749120388,0.926694164778143,0.925300869785386,0.924502570883222,0.923726860934662,0.922479782457431,0.920512475716608,0.918677675150365,0.916355032878139,0.913599804698457,0.910170939872179,0.905800911763166,0.901922216816497,0.89839445143916,0.895188633992226,0.891713532601816,0.888974129290504,0.888520888458247,0.888846878443209,0.889648033805724,0.892492114924329,0.898217827005029,0.908799377718464,0.924999480059769,0.944588848987664,0.966192864646051,0.987309322504521,1.00358490231054,1.01517627092352,1.02450431567501,1.03056833994505,1.03403140730967,1.03722837314134,1.04081355417053,1.04478404731065,1.04868589536973,1.05318016349757,1.05708580970588,1.05996946417208,1.06185822094677,1.06315381249991,1.06366962796281,1.06327971341566,1.06283581256664,1.06277533450644,1.0622860767996,1.06131666427509,1.06022174625994,1.05932780067364,1.05901147878931,1.05795455582694,1.0565727404227,1.05590374794682,1.0542786582957,1.05268425347223,1.05077996260842,1.04880295389639,1.04690215356014,1.04481063961842,1.041448920651,1.03869062461396,1.03639835669935,1.03549399241061,1.03520168142511,1.03461206574147,1.03427711992883,1.03386899235865,1.03382205367655,1.03441232379928,1.03467851418833,1.03500864957337,1.03551803575586,1.03548864835107,1.03591951218403,1.03636340783172,1.03682315955577,1.03732465222082,1.0372769623177,1.0374583256611,1.03671695261864,1.03635831411726,1.03583323929178,1.0351868474725,1.03427393095472,1.03328215722067,1.03227708628007,1.0313158870311,1.03012647083557,1.02882872692151,1.02734982394018,1.02626108399347,1.02439114310102,1.02303672286736,1.02141889731053,1.01954130922089,1.01731966815693,1.01640284376658,1.01509841725482,1.01365352132843,1.0122238849351,1.01031963803493,1.00880419228716,1.00775088648002,1.00596830209075,1.00438192533823,1.00278610829106,1.00040179437667,0.998437507195123,0.996870509926371,0.995230530098724,0.993474343586457,0.991386534913019,0.989348395559322,0.987742300059929,0.985928955671376,0.984054243113638
"75-AE4-Qu-Mar",0.539288314195085,0.551319918729088,0.5770312994249,0.603525714099908,0.623504214530003,0.63218881218292,0.633093634553615,0.629842584663545,0.62746968976685,0.629038738413783,0.625187596917398,0.64034558483111,0.649886797165625,0.673957180930495,0.712252293086878,0.741303580041588,0.745577600981223,0.738826565506818,0.731866234282365,0.72733594629075,0.723596263684875,0.718149877503693,0.712053877802928,0.70761348433582,0.709019996980813,0.714061229153793,0.72356089077514,0.73828106323717,0.75486743130679,0.76678959386621,0.767984998984593,0.76037412112166,0.74679437032212,0.727107301198758,0.705933673877483,0.687311631162158,0.67254344739219,0.672051307878768,0.700992389723188,0.770634354886898,0.846089225207283,0.888174517374148,0.904644578948468,0.90914459149069,0.907677428954525,0.903348385085398,0.899143639080213,0.895753929288583,0.892557094846175,0.889654194645128,0.887470354114853,0.88398084574912,0.880600388754363,0.881224531748513,0.880038547621545,0.87257204105835,0.874269728184965,0.882684561960255,0.89146090939688,0.899435893596538,0.907125224129275,0.913709459589455,0.91992533789961,0.925886983220058,0.929281268618703,0.92943649885909,0.92838183778667,0.926193826192103,0.92254265591796,0.918575838208648,0.913771943152703,0.90950704598061,0.906501993160318,0.9047640262471,0.90336510628739,0.902588739645945,0.901515666051128,0.9004220856744,0.898682061631525,0.896510412337578,0.893561161556958,0.889718095742358,0.88489942725987,0.880535965063675,0.87671552835376,0.87322359945454,0.869594887993505,0.867288678994843,0.867323264899678,0.86781199907497,0.86897284881888,0.872125288536918,0.87851961792608,0.89008363947322,0.907135816376415,0.928834379543285,0.952652220281948,0.97510732379621,0.992427577327343,1.00424275841269,1.01376800022206,1.01984341746263,1.02375786875405,1.02743856330731,1.03208561759999,1.03687563848734,1.04157421754674,1.04639036150748,1.05059925032866,1.05401089029555,1.05642097074202,1.05814230095142,1.05906305721082,1.05942319040635,1.05942522520876,1.05917183183486,1.05889303294361,1.05794971628826,1.05665751271273,1.05554500153757,1.05467112634592,1.05346027391263,1.05269453115888,1.051826744585,1.05052197909137,1.04926190721127,1.04767016994087,1.04574625671381,1.04348768248195,1.04129067454555,1.0384080618629,1.03592396089177,1.03424943354305,1.03329076202736,1.03244342777416,1.03210994055386,1.03165715486273,1.0317361421531,1.03198329826646,1.03241476673333,1.03307515204325,1.03376991756355,1.03408423954925,1.0346089709956,1.03575056594918,1.03668707427201,1.03769341601906,1.03850124497003,1.03864189946026,1.03907362906967,1.03877666023363,1.03857306502652,1.03799494072531,1.03756311761282,1.03690431772303,1.03600901009355,1.03450999704968,1.03346900186093,1.0322349791029,1.0314324259836,1.02995161242804,1.02868187913763,1.02719908733793,1.02620208578477,1.02490774631742,1.02336832334742,1.02155276872965,1.02006155517572,1.01887632289748,1.017725423708,1.01626692439348,1.01405957085827,1.01267278884553,1.01117991857226,1.00883165384506,1.007505192489,1.00590525636684,1.00470640440137,1.0027583780473,1.00099087766502,0.999505072857765,0.998072183583188,0.99616032707383,0.99401161373013,0.992150856042683,0.990487114115033,0.988694882843895
"58-E4-Ca-Mar",0.625060158266494,0.63536161349332,0.660042596276314,0.68439976962287,0.704363939000198,0.714462140578321,0.717025073605088,0.712211865846285,0.70849883587369,0.707772447587385,0.703540126374503,0.719068747487118,0.729212517096261,0.749921504120477,0.783178088487677,0.80681772564413,0.809288370695377,0.802875877229725,0.796486283670219,0.794417254901174,0.79412467921659,0.791585116591634,0.787805646558828,0.784606964035954,0.784888042341359,0.787663443368393,0.793104719028509,0.802931836927298,0.815136878342928,0.822443624783458,0.820326101789642,0.811521483930718,0.799630548337065,0.781363261556913,0.761933409217691,0.745071769473832,0.732340282976768,0.732732486775655,0.760936363280137,0.825105373434937,0.891858885005576,0.92840643407365,0.943538064488468,0.948549213395071,0.947401327814726,0.943212003522284,0.939472987031809,0.936189093751665,0.933224400998896,0.930255481196415,0.927529885888861,0.924561303119541,0.921544668111659,0.921205174470362,0.91948366484392,0.913595481418276,0.915232026711943,0.922166005331035,0.929277937579067,0.934593997619837,0.940962497051333,0.945813630992247,0.949503970665948,0.953082352035371,0.955721727040145,0.956639152344853,0.955733315386601,0.953923814464364,0.951614743074999,0.948899065292472,0.945274185001536,0.942304347756417,0.940203716166575,0.939172968227747,0.93844354514878,0.937131128214932,0.936058022875939,0.934646899035826,0.933020777683568,0.930886724823923,0.928007517642838,0.92455973175248,0.921353884570406,0.91771514109365,0.914502086697381,0.912229104931341,0.909577437151517,0.907356081825157,0.906524390548748,0.906760181016689,0.907650488271007,0.910315254442124,0.915362421070847,0.923933670689698,0.935956126795622,0.950149243455706,0.965777682207744,0.980939475925057,0.992699619760711,1.00049934668089,1.00591435461351,1.00965612928919,1.01172055243642,1.01365865550682,1.0160605607949,1.01797442228148,1.01985988607943,1.02237317033814,1.02422803619888,1.0256377560828,1.02655076301963,1.02675078619442,1.02655683750595,1.02585553162321,1.02515806208513,1.0237894032878,1.02286451460218,1.02196482170049,1.02098089967527,1.01980813783205,1.01837566280069,1.01662988672683,1.01558257061073,1.01456986377793,1.01338909896604,1.01189745007992,1.0107938115925,1.00894010230716,1.00708083606878,1.00508005756094,1.00283352653278,1.00057811950111,0.998594011971933,0.996824319573071,0.995718319522557,0.994631493126643,0.993746333831234,0.992962786358346,0.992436303682682,0.991736900880788,0.990929158622618,0.990101672042596,0.989110995906285,0.988270005646468,0.98809604136891,0.987837818382537,0.987662097814953,0.986864619498587,0.986018167735621,0.984948031683287,0.983372670190853,0.982445986664684,0.98181090818672,0.980247015444473,0.9786811424008,0.976920688499877,0.975181134898529,0.973933700695652,0.972345230651323,0.970882812384159,0.96937195398249,0.967629581710472,0.96639009548948,0.964500709938035,0.962920483967502,0.961020899382572,0.958650203221826,0.956833736608892,0.955437581906297,0.95388320050405,0.952202924634674,0.950215312594157,0.94829903276465,0.946380486941481,0.944925035978756,0.942243256536203,0.940421657862715,0.938706649647203,0.93668182882288,0.934562584025319,0.932512513625638,0.93045237472633,0.928512852877214,0.9259733560571,0.924438399037263,0.922639063020839,0.920427268642127
