ini,to.rem,m,s,p,m.s,s.s,p.s,val
1,2,-86.5,-51.9,-64.75,0.07765424062161101,-0.03162277660172919,-0.2721024480093339,0.38137946523267413
2,2,-86.5,-51.9,-64.75,0.07765424062161101,-0.03162277660172919,-0.2721024480093339,0.38137946523267413
3,2,-86.5,-51.9,-64.75,0.07765424062161101,-0.03162277660172919,-0.2721024480093339,0.38137946523267413
4,2,-86.5,-51.9,-64.75,0.07765424062161101,-0.03162277660172919,-0.2721024480093339,0.38137946523267413
5,2,-86.5,-51.9,-64.75,0.07765424062161101,-0.03162277660172919,-0.2721024480093339,0.38137946523267413
6,0,-86.5,-51.9,-64.75,0.07765424062161101,-0.03162277660172919,-0.2721024480093339,0.38137946523267413
7,1,-86.5,-51.9,-64.75,0.07765424062161101,-0.03162277660172919,-0.2721024480093339,0.38137946523267413
8,2,-86.5,-51.9,-64.75,0.07765424062161101,-0.03162277660172919,-0.2721024480093339,0.38137946523267413
9,2,-86.5,-51.9,-64.75,0.07765424062161101,-0.03162277660172919,-0.2721024480093339,0.38137946523267413
10,0,-86.5,-51.9,-64.75,0.07765424062161101,-0.03162277660172919,-0.2721024480093339,0.38137946523267413
11,3,-86.5,-51.9,-64.75,0.07765424062161101,-0.03162277660172919,-0.2721024480093339,0.38137946523267413
12,0,-86.5,-51.9,-57.666666666666664,0.07765424062161101,-0.03162277660172919,3.6714112912564083,3.7806883084797485
13,1,-86.5,-51.9,-64.75,0.07765424062161101,-0.03162277660172919,-0.2721024480093339,0.38137946523267413
14,1,-86.5,-51.9,-57.666666666666664,0.07765424062161101,-0.03162277660172919,3.6714112912564083,3.7806883084797485
15,3,-86.5,-51.9,-64.75,0.07765424062161101,-0.03162277660172919,-0.2721024480093339,0.38137946523267413
16,1,-86.5,-51.9,-64.75,0.07765424062161101,-0.03162277660172919,-0.2721024480093339,0.38137946523267413
17,1,-86.5,-51.9,-64.75,0.07765424062161101,-0.03162277660172919,-0.2721024480093339,0.38137946523267413
18,2,-86.5,-51.9,-64.75,0.07765424062161101,-0.03162277660172919,-0.2721024480093339,0.38137946523267413
19,2,-86.5,-51.9,-64.75,0.07765424062161101,-0.03162277660172919,-0.2721024480093339,0.38137946523267413
20,0,-86.5,-51.9,-64.75,0.07765424062161101,-0.03162277660172919,-0.2721024480093339,0.38137946523267413
21,2,-86.5,-51.9,-57.666666666666664,0.07765424062161101,-0.03162277660172919,3.6714112912564083,3.7806883084797485
22,2,-86.5,-51.9,-64.75,0.07765424062161101,-0.03162277660172919,-0.2721024480093339,0.38137946523267413
23,2,-86.5,-51.9,-64.75,0.07765424062161101,-0.03162277660172919,-0.2721024480093339,0.38137946523267413
24,2,-86.5,-51.9,-64.75,0.07765424062161101,-0.03162277660172919,-0.2721024480093339,0.38137946523267413
25,2,-86.5,-51.9,-64.75,0.07765424062161101,-0.03162277660172919,-0.2721024480093339,0.38137946523267413
26,1,-86.5,-51.9,-64.75,0.07765424062161101,-0.03162277660172919,-0.2721024480093339,0.38137946523267413
27,1,-86.5,-51.9,-64.75,0.07765424062161101,-0.03162277660172919,-0.2721024480093339,0.38137946523267413
28,2,-99.2,-51.9,-64.75,-12.864719196313551,-0.03162277660172919,-0.2721024480093339,13.168444420924615
29,3,-86.5,-51.9,-64.75,0.07765424062161101,-0.03162277660172919,-0.2721024480093339,0.38137946523267413
30,0,-86.5,-51.9,-64.75,0.07765424062161101,-0.03162277660172919,-0.2721024480093339,0.38137946523267413
31,2,-86.5,-51.9,-64.75,0.07765424062161101,-0.03162277660172919,-0.2721024480093339,0.38137946523267413
32,1,-86.5,-51.9,-64.75,0.07765424062161101,-0.03162277660172919,-0.2721024480093339,0.38137946523267413
33,0,-86.5,-51.9,-64.75,0.07765424062161101,-0.03162277660172919,-0.2721024480093339,0.38137946523267413
34,4,-86.5,-51.9,-64.75,0.07765424062161101,-0.03162277660172919,-0.2721024480093339,0.38137946523267413
35,3,-86.5,-51.9,-64.75,0.07765424062161101,-0.03162277660172919,-0.2721024480093339,0.38137946523267413
36,0,-86.5,-51.9,-57.666666666666664,0.07765424062161101,-0.03162277660172919,3.6714112912564083,3.7806883084797485
37,0,-86.5,-51.9,-64.75,0.07765424062161101,-0.03162277660172919,-0.2721024480093339,0.38137946523267413
38,2,-86.5,-51.9,-64.75,0.07765424062161101,-0.03162277660172919,-0.2721024480093339,0.38137946523267413
39,0,-86.5,-51.9,-64.75,0.07765424062161101,-0.03162277660172919,-0.2721024480093339,0.38137946523267413
40,2,-86.5,-51.9,-64.75,0.07765424062161101,-0.03162277660172919,-0.2721024480093339,0.38137946523267413
41,1,-86.5,-51.9,-64.75,0.07765424062161101,-0.03162277660172919,-0.2721024480093339,0.38137946523267413
42,3,-86.5,-51.9,-64.75,0.07765424062161101,-0.03162277660172919,-0.2721024480093339,0.38137946523267413
43,0,-86.5,-51.9,-64.75,0.07765424062161101,-0.03162277660172919,-0.2721024480093339,0.38137946523267413
44,0,-86.5,-51.9,-64.75,0.07765424062161101,-0.03162277660172919,-0.2721024480093339,0.38137946523267413
45,4,-86.5,-51.9,-64.75,0.07765424062161101,-0.03162277660172919,-0.2721024480093339,0.38137946523267413
46,2,-86.5,-51.9,-64.75,0.07765424062161101,-0.03162277660172919,-0.2721024480093339,0.38137946523267413
47,4,-86.5,-51.9,-64.75,0.07765424062161101,-0.03162277660172919,-0.2721024480093339,0.38137946523267413
48,1,-86.5,-51.9,-64.75,0.07765424062161101,-0.03162277660172919,-0.2721024480093339,0.38137946523267413
49,3,-86.5,-51.9,-64.75,0.07765424062161101,-0.03162277660172919,-0.2721024480093339,0.38137946523267413
50,1,-86.5,-51.9,-64.75,0.07765424062161101,-0.03162277660172919,-0.2721024480093339,0.38137946523267413
51,2,-86.5,-51.9,-64.75,0.07765424062161101,-0.03162277660172919,-0.2721024480093339,0.38137946523267413
52,3,-86.5,-51.9,-64.75,0.07765424062161101,-0.03162277660172919,-0.2721024480093339,0.38137946523267413
53,2,-86.5,-51.9,-64.75,0.07765424062161101,-0.03162277660172919,-0.2721024480093339,0.38137946523267413
54,1,-86.5,-51.9,-64.75,0.07765424062161101,-0.03162277660172919,-0.2721024480093339,0.38137946523267413
55,2,-86.5,-51.9,-64.75,0.07765424062161101,-0.03162277660172919,-0.2721024480093339,0.38137946523267413
56,0,-86.5,-51.9,-64.75,0.07765424062161101,-0.03162277660172919,-0.2721024480093339,0.38137946523267413
57,0,-86.5,-51.9,-64.75,0.07765424062161101,-0.03162277660172919,-0.2721024480093339,0.38137946523267413
58,0,-86.5,-51.9,-64.75,0.07765424062161101,-0.03162277660172919,-0.2721024480093339,0.38137946523267413
59,3,-86.5,-51.9,-57.666666666666664,0.07765424062161101,-0.03162277660172919,3.6714112912564083,3.7806883084797485
60,2,-86.5,-51.9,-64.75,0.07765424062161101,-0.03162277660172919,-0.2721024480093339,0.38137946523267413
61,1,-86.5,-51.9,-64.75,0.07765424062161101,-0.03162277660172919,-0.2721024480093339,0.38137946523267413
62,2,-86.5,-51.9,-64.75,0.07765424062161101,-0.03162277660172919,-0.2721024480093339,0.38137946523267413
63,1,-86.5,-51.9,-64.75,0.07765424062161101,-0.03162277660172919,-0.2721024480093339,0.38137946523267413
64,3,-86.5,-51.9,-64.75,0.07765424062161101,-0.03162277660172919,-0.2721024480093339,0.38137946523267413
65,2,-86.5,-51.9,-64.75,0.07765424062161101,-0.03162277660172919,-0.2721024480093339,0.38137946523267413
66,1,-86.5,-51.9,-64.75,0.07765424062161101,-0.03162277660172919,-0.2721024480093339,0.38137946523267413
67,2,-86.5,-51.9,-64.75,0.07765424062161101,-0.03162277660172919,-0.2721024480093339,0.38137946523267413
68,4,-86.5,-51.9,-64.75,0.07765424062161101,-0.03162277660172919,-0.2721024480093339,0.38137946523267413
69,2,-86.5,-51.9,-64.75,0.07765424062161101,-0.03162277660172919,-0.2721024480093339,0.38137946523267413
70,3,-86.5,-51.9,-64.75,0.07765424062161101,-0.03162277660172919,-0.2721024480093339,0.38137946523267413
71,3,-86.5,-51.9,-64.75,0.07765424062161101,-0.03162277660172919,-0.2721024480093339,0.38137946523267413
72,4,-86.5,-51.9,-64.75,0.07765424062161101,-0.03162277660172919,-0.2721024480093339,0.38137946523267413
73,2,-86.5,-51.9,-64.75,0.07765424062161101,-0.03162277660172919,-0.2721024480093339,0.38137946523267413
74,3,-86.5,-51.9,-64.75,0.07765424062161101,-0.03162277660172919,-0.2721024480093339,0.38137946523267413
75,2,-86.5,-51.9,-64.75,0.07765424062161101,-0.03162277660172919,-0.2721024480093339,0.38137946523267413
76,1,-86.5,-51.9,-64.75,0.07765424062161101,-0.03162277660172919,-0.2721024480093339,0.38137946523267413
77,4,-86.5,-51.9,-64.75,0.07765424062161101,-0.03162277660172919,-0.2721024480093339,0.38137946523267413
78,2,-86.5,-51.9,-64.75,0.07765424062161101,-0.03162277660172919,-0.2721024480093339,0.38137946523267413
79,3,-86.5,-51.9,-64.75,0.07765424062161101,-0.03162277660172919,-0.2721024480093339,0.38137946523267413
80,0,-86.5,-51.9,-64.75,0.07765424062161101,-0.03162277660172919,-0.2721024480093339,0.38137946523267413
81,0,-86.5,-51.9,-64.75,0.07765424062161101,-0.03162277660172919,-0.2721024480093339,0.38137946523267413
82,0,-86.5,-51.9,-64.75,0.07765424062161101,-0.03162277660172919,-0.2721024480093339,0.38137946523267413
83,2,-86.5,-51.9,-64.75,0.07765424062161101,-0.03162277660172919,-0.2721024480093339,0.38137946523267413
84,1,-86.5,-51.9,-64.75,0.07765424062161101,-0.03162277660172919,-0.2721024480093339,0.38137946523267413
85,1,-86.5,-51.9,-64.75,0.07765424062161101,-0.03162277660172919,-0.2721024480093339,0.38137946523267413
86,2,-86.5,-51.9,-64.75,0.07765424062161101,-0.03162277660172919,-0.2721024480093339,0.38137946523267413
87,3,-86.5,-51.9,-64.75,0.07765424062161101,-0.03162277660172919,-0.2721024480093339,0.38137946523267413
88,1,-86.5,-51.9,-64.75,0.07765424062161101,-0.03162277660172919,-0.2721024480093339,0.38137946523267413
89,2,-86.5,-51.9,-64.75,0.07765424062161101,-0.03162277660172919,-0.2721024480093339,0.38137946523267413
90,2,-86.5,-51.9,-64.75,0.07765424062161101,-0.03162277660172919,-0.2721024480093339,0.38137946523267413
91,0,-86.5,-51.9,-64.75,0.07765424062161101,-0.03162277660172919,-0.2721024480093339,0.38137946523267413
92,0,-86.5,-51.9,-64.75,0.07765424062161101,-0.03162277660172919,-0.2721024480093339,0.38137946523267413
93,1,-86.5,-51.9,-57.666666666666664,0.07765424062161101,-0.03162277660172919,3.6714112912564083,3.7806883084797485
94,0,-86.5,-51.9,-64.75,0.07765424062161101,-0.03162277660172919,-0.2721024480093339,0.38137946523267413
95,0,-86.5,-51.9,-64.75,0.07765424062161101,-0.03162277660172919,-0.2721024480093339,0.38137946523267413
96,0,-86.5,-51.9,-64.75,0.07765424062161101,-0.03162277660172919,-0.2721024480093339,0.38137946523267413
97,2,-86.5,-51.9,-64.75,0.07765424062161101,-0.03162277660172919,-0.2721024480093339,0.38137946523267413
98,0,-86.5,-51.9,-64.75,0.07765424062161101,-0.03162277660172919,-0.2721024480093339,0.38137946523267413
99,0,-86.5,-51.9,-64.75,0.07765424062161101,-0.03162277660172919,-0.2721024480093339,0.38137946523267413
100,2,-86.5,-51.9,-57.666666666666664,0.07765424062161101,-0.03162277660172919,3.6714112912564083,3.7806883084797485
101,1,-86.5,-51.9,-64.75,0.07765424062161101,-0.03162277660172919,-0.2721024480093339,0.38137946523267413
102,0,-86.5,-51.9,-64.75,0.07765424062161101,-0.03162277660172919,-0.2721024480093339,0.38137946523267413
103,0,-86.5,-51.9,-64.75,0.07765424062161101,-0.03162277660172919,-0.2721024480093339,0.38137946523267413
104,0,-86.5,-51.9,-64.75,0.07765424062161101,-0.03162277660172919,-0.2721024480093339,0.38137946523267413
105,2,-86.5,-51.9,-64.75,0.07765424062161101,-0.03162277660172919,-0.2721024480093339,0.38137946523267413
106,1,-86.5,-51.9,-64.75,0.07765424062161101,-0.03162277660172919,-0.2721024480093339,0.38137946523267413
107,1,-86.5,-51.9,-64.75,0.07765424062161101,-0.03162277660172919,-0.2721024480093339,0.38137946523267413
108,1,-86.5,-51.9,-64.75,0.07765424062161101,-0.03162277660172919,-0.2721024480093339,0.38137946523267413
109,3,-86.5,-51.9,-64.75,0.07765424062161101,-0.03162277660172919,-0.2721024480093339,0.38137946523267413
110,3,-86.5,-51.9,-64.75,0.07765424062161101,-0.03162277660172919,-0.2721024480093339,0.38137946523267413
111,1,-86.5,-51.9,-64.75,0.07765424062161101,-0.03162277660172919,-0.2721024480093339,0.38137946523267413
112,0,-86.5,-51.9,-64.75,0.07765424062161101,-0.03162277660172919,-0.2721024480093339,0.38137946523267413
113,0,-86.5,-51.9,-64.75,0.07765424062161101,-0.03162277660172919,-0.2721024480093339,0.38137946523267413
114,1,-86.5,-51.9,-57.666666666666664,0.07765424062161101,-0.03162277660172919,3.6714112912564083,3.7806883084797485
115,2,-86.5,-51.9,-64.75,0.07765424062161101,-0.03162277660172919,-0.2721024480093339,0.38137946523267413
116,0,-86.5,-51.9,-64.75,0.07765424062161101,-0.03162277660172919,-0.2721024480093339,0.38137946523267413
117,1,-86.5,-51.9,-64.75,0.07765424062161101,-0.03162277660172919,-0.2721024480093339,0.38137946523267413
118,2,-86.5,-51.9,-64.75,0.07765424062161101,-0.03162277660172919,-0.2721024480093339,0.38137946523267413
119,2,-86.5,-51.9,-64.75,0.07765424062161101,-0.03162277660172919,-0.2721024480093339,0.38137946523267413
120,0,-86.5,-51.9,-64.75,0.07765424062161101,-0.03162277660172919,-0.2721024480093339,0.38137946523267413
121,1,-86.5,-51.9,-64.75,0.07765424062161101,-0.03162277660172919,-0.2721024480093339,0.38137946523267413
122,3,-86.5,-51.9,-64.75,0.07765424062161101,-0.03162277660172919,-0.2721024480093339,0.38137946523267413
123,2,-86.5,-51.9,-64.75,0.07765424062161101,-0.03162277660172919,-0.2721024480093339,0.38137946523267413
124,0,-86.5,-51.9,-64.75,0.07765424062161101,-0.03162277660172919,-0.2721024480093339,0.38137946523267413
125,1,-86.5,-51.9,-64.75,0.07765424062161101,-0.03162277660172919,-0.2721024480093339,0.38137946523267413
126,0,-86.5,-51.9,-64.75,0.07765424062161101,-0.03162277660172919,-0.2721024480093339,0.38137946523267413
127,2,-86.5,-51.9,-64.75,0.07765424062161101,-0.03162277660172919,-0.2721024480093339,0.38137946523267413
128,1,-86.5,-51.9,-64.75,0.07765424062161101,-0.03162277660172919,-0.2721024480093339,0.38137946523267413
129,1,-86.5,-51.9,-64.75,0.07765424062161101,-0.03162277660172919,-0.2721024480093339,0.38137946523267413
130,1,-86.5,-51.9,-64.75,0.07765424062161101,-0.03162277660172919,-0.2721024480093339,0.38137946523267413
131,1,-86.5,-51.9,-64.75,0.07765424062161101,-0.03162277660172919,-0.2721024480093339,0.38137946523267413
132,2,-86.5,-51.9,-64.75,0.07765424062161101,-0.03162277660172919,-0.2721024480093339,0.38137946523267413
133,0,-86.5,-51.9,-64.75,0.07765424062161101,-0.03162277660172919,-0.2721024480093339,0.38137946523267413
134,4,-86.5,-51.9,-64.75,0.07765424062161101,-0.03162277660172919,-0.2721024480093339,0.38137946523267413
135,1,-86.5,-51.9,-64.75,0.07765424062161101,-0.03162277660172919,-0.2721024480093339,0.38137946523267413
136,2,-86.5,-51.9,-57.666666666666664,0.07765424062161101,-0.03162277660172919,3.6714112912564083,3.7806883084797485
137,1,-86.5,-51.9,-64.75,0.07765424062161101,-0.03162277660172919,-0.2721024480093339,0.38137946523267413
138,2,-86.5,-51.9,-64.75,0.07765424062161101,-0.03162277660172919,-0.2721024480093339,0.38137946523267413
139,1,-86.5,-51.9,-64.75,0.07765424062161101,-0.03162277660172919,-0.2721024480093339,0.38137946523267413
140,4,-86.5,-51.9,-64.75,0.07765424062161101,-0.03162277660172919,-0.2721024480093339,0.38137946523267413
141,0,-86.5,-51.9,-64.75,0.07765424062161101,-0.03162277660172919,-0.2721024480093339,0.38137946523267413
142,2,-86.5,-51.9,-64.75,0.07765424062161101,-0.03162277660172919,-0.2721024480093339,0.38137946523267413
143,2,-86.5,-51.9,-64.75,0.07765424062161101,-0.03162277660172919,-0.2721024480093339,0.38137946523267413
144,0,-86.5,-51.9,-64.75,0.07765424062161101,-0.03162277660172919,-0.2721024480093339,0.38137946523267413
145,1,-86.5,-51.9,-64.75,0.07765424062161101,-0.03162277660172919,-0.2721024480093339,0.38137946523267413
146,1,-86.5,-51.9,-64.75,0.07765424062161101,-0.03162277660172919,-0.2721024480093339,0.38137946523267413
147,1,-86.5,-51.9,-64.75,0.07765424062161101,-0.03162277660172919,-0.2721024480093339,0.38137946523267413
148,2,-86.5,-51.9,-64.75,0.07765424062161101,-0.03162277660172919,-0.2721024480093339,0.38137946523267413
149,2,-86.5,-51.9,-64.75,0.07765424062161101,-0.03162277660172919,-0.2721024480093339,0.38137946523267413
150,2,-86.5,-51.9,-64.75,0.07765424062161101,-0.03162277660172919,-0.2721024480093339,0.38137946523267413
151,0,-86.5,-51.9,-64.75,0.07765424062161101,-0.03162277660172919,-0.2721024480093339,0.38137946523267413
152,2,-86.5,-51.9,-64.75,0.07765424062161101,-0.03162277660172919,-0.2721024480093339,0.38137946523267413
153,3,-86.5,-51.9,-64.75,0.07765424062161101,-0.03162277660172919,-0.2721024480093339,0.38137946523267413
154,0,-86.5,-51.9,-64.75,0.07765424062161101,-0.03162277660172919,-0.2721024480093339,0.38137946523267413
155,2,-86.5,-51.9,-64.75,0.07765424062161101,-0.03162277660172919,-0.2721024480093339,0.38137946523267413
156,3,-86.5,-51.9,-64.75,0.07765424062161101,-0.03162277660172919,-0.2721024480093339,0.38137946523267413
157,1,-86.5,-51.9,-64.75,0.07765424062161101,-0.03162277660172919,-0.2721024480093339,0.38137946523267413
158,0,-86.5,-51.9,-57.666666666666664,0.07765424062161101,-0.03162277660172919,3.6714112912564083,3.7806883084797485
159,2,-86.5,-51.9,-64.75,0.07765424062161101,-0.03162277660172919,-0.2721024480093339,0.38137946523267413
160,3,-86.5,-51.9,-64.75,0.07765424062161101,-0.03162277660172919,-0.2721024480093339,0.38137946523267413
161,3,-86.5,-51.9,-64.75,0.07765424062161101,-0.03162277660172919,-0.2721024480093339,0.38137946523267413
162,1,-86.5,-51.9,-57.666666666666664,0.07765424062161101,-0.03162277660172919,3.6714112912564083,3.7806883084797485
163,0,-86.5,-51.9,-64.75,0.07765424062161101,-0.03162277660172919,-0.2721024480093339,0.38137946523267413
164,1,-86.5,-51.9,-64.75,0.07765424062161101,-0.03162277660172919,-0.2721024480093339,0.38137946523267413
165,1,-86.5,-51.9,-64.75,0.07765424062161101,-0.03162277660172919,-0.2721024480093339,0.38137946523267413
166,3,-86.5,-51.9,-64.75,0.07765424062161101,-0.03162277660172919,-0.2721024480093339,0.38137946523267413
167,1,-86.5,-51.9,-64.75,0.07765424062161101,-0.03162277660172919,-0.2721024480093339,0.38137946523267413
168,1,-86.5,-51.9,-64.75,0.07765424062161101,-0.03162277660172919,-0.2721024480093339,0.38137946523267413
169,2,-86.5,-51.9,-64.75,0.07765424062161101,-0.03162277660172919,-0.2721024480093339,0.38137946523267413
170,1,-86.5,-51.9,-64.75,0.07765424062161101,-0.03162277660172919,-0.2721024480093339,0.38137946523267413
171,2,-86.5,-51.9,-64.75,0.07765424062161101,-0.03162277660172919,-0.2721024480093339,0.38137946523267413
172,3,-86.5,-51.9,-64.75,0.07765424062161101,-0.03162277660172919,-0.2721024480093339,0.38137946523267413
173,0,-86.5,-51.9,-64.75,0.07765424062161101,-0.03162277660172919,-0.2721024480093339,0.38137946523267413
174,1,-86.5,-51.9,-64.75,0.07765424062161101,-0.03162277660172919,-0.2721024480093339,0.38137946523267413
175,1,-86.5,-51.9,-64.75,0.07765424062161101,-0.03162277660172919,-0.2721024480093339,0.38137946523267413
176,2,-86.5,-51.9,-57.666666666666664,0.07765424062161101,-0.03162277660172919,3.6714112912564083,3.7806883084797485
177,2,-86.5,-51.9,-64.75,0.07765424062161101,-0.03162277660172919,-0.2721024480093339,0.38137946523267413
178,2,-86.5,-51.9,-64.75,0.07765424062161101,-0.03162277660172919,-0.2721024480093339,0.38137946523267413
179,1,-86.5,-51.9,-64.75,0.07765424062161101,-0.03162277660172919,-0.2721024480093339,0.38137946523267413
180,2,-86.5,-51.9,-64.75,0.07765424062161101,-0.03162277660172919,-0.2721024480093339,0.38137946523267413
181,2,-86.5,-51.9,-64.75,0.07765424062161101,-0.03162277660172919,-0.2721024480093339,0.38137946523267413
182,0,-86.5,-51.9,-64.75,0.07765424062161101,-0.03162277660172919,-0.2721024480093339,0.38137946523267413
183,2,-86.5,-51.9,-57.666666666666664,0.07765424062161101,-0.03162277660172919,3.6714112912564083,3.7806883084797485
184,3,-86.5,-51.9,-64.75,0.07765424062161101,-0.03162277660172919,-0.2721024480093339,0.38137946523267413
185,3,-86.5,-51.9,-64.75,0.07765424062161101,-0.03162277660172919,-0.2721024480093339,0.38137946523267413
186,1,-86.5,-51.9,-64.75,0.07765424062161101,-0.03162277660172919,-0.2721024480093339,0.38137946523267413
187,3,-86.5,-51.9,-64.75,0.07765424062161101,-0.03162277660172919,-0.2721024480093339,0.38137946523267413
188,1,-86.5,-51.9,-64.75,0.07765424062161101,-0.03162277660172919,-0.2721024480093339,0.38137946523267413
189,0,-86.5,-51.9,-64.75,0.07765424062161101,-0.03162277660172919,-0.2721024480093339,0.38137946523267413
190,4,-86.5,-51.9,-64.75,0.07765424062161101,-0.03162277660172919,-0.2721024480093339,0.38137946523267413
191,2,-86.5,-51.9,-64.75,0.07765424062161101,-0.03162277660172919,-0.2721024480093339,0.38137946523267413
192,2,-86.5,-51.9,-64.75,0.07765424062161101,-0.03162277660172919,-0.2721024480093339,0.38137946523267413
193,2,-86.5,-51.9,-57.666666666666664,0.07765424062161101,-0.03162277660172919,3.6714112912564083,3.7806883084797485
194,2,-86.5,-51.9,-64.75,0.07765424062161101,-0.03162277660172919,-0.2721024480093339,0.38137946523267413
195,2,-86.5,-51.9,-64.75,0.07765424062161101,-0.03162277660172919,-0.2721024480093339,0.38137946523267413
196,1,-86.5,-51.9,-64.75,0.07765424062161101,-0.03162277660172919,-0.2721024480093339,0.38137946523267413
197,1,-86.5,-51.9,-64.75,0.07765424062161101,-0.03162277660172919,-0.2721024480093339,0.38137946523267413
198,1,-86.5,-51.9,-64.75,0.07765424062161101,-0.03162277660172919,-0.2721024480093339,0.38137946523267413
199,2,-86.5,-51.9,-64.75,0.07765424062161101,-0.03162277660172919,-0.2721024480093339,0.38137946523267413
200,0,-86.5,-51.9,-64.75,0.07765424062161101,-0.03162277660172919,-0.2721024480093339,0.38137946523267413
201,0,-86.5,-51.9,-64.75,0.07765424062161101,-0.03162277660172919,-0.2721024480093339,0.38137946523267413
202,3,-86.5,-51.9,-64.75,0.07765424062161101,-0.03162277660172919,-0.2721024480093339,0.38137946523267413
203,1,-86.5,-51.9,-64.75,0.07765424062161101,-0.03162277660172919,-0.2721024480093339,0.38137946523267413
204,2,-86.5,-51.9,-64.75,0.07765424062161101,-0.03162277660172919,-0.2721024480093339,0.38137946523267413
205,2,-86.5,-51.9,-64.75,0.07765424062161101,-0.03162277660172919,-0.2721024480093339,0.38137946523267413
206,0,-86.5,-51.9,-64.75,0.07765424062161101,-0.03162277660172919,-0.2721024480093339,0.38137946523267413
207,3,-99.2,-51.9,-64.75,-12.864719196313551,-0.03162277660172919,-0.2721024480093339,13.168444420924615
208,1,-86.5,-51.9,-64.75,0.07765424062161101,-0.03162277660172919,-0.2721024480093339,0.38137946523267413
209,2,-86.5,-51.9,-64.75,0.07765424062161101,-0.03162277660172919,-0.2721024480093339,0.38137946523267413
210,3,-86.5,-51.9,-64.75,0.07765424062161101,-0.03162277660172919,-0.2721024480093339,0.38137946523267413
211,3,-86.5,-51.9,-64.75,0.07765424062161101,-0.03162277660172919,-0.2721024480093339,0.38137946523267413
212,2,-86.5,-51.9,-64.75,0.07765424062161101,-0.03162277660172919,-0.2721024480093339,0.38137946523267413
213,0,-86.5,-51.9,-64.75,0.07765424062161101,-0.03162277660172919,-0.2721024480093339,0.38137946523267413
214,1,-86.5,-51.9,-64.75,0.07765424062161101,-0.03162277660172919,-0.2721024480093339,0.38137946523267413
215,2,-86.5,-51.9,-64.75,0.07765424062161101,-0.03162277660172919,-0.2721024480093339,0.38137946523267413
216,1,-86.5,-51.9,-64.75,0.07765424062161101,-0.03162277660172919,-0.2721024480093339,0.38137946523267413
217,2,-86.5,-51.9,-64.75,0.07765424062161101,-0.03162277660172919,-0.2721024480093339,0.38137946523267413
218,0,-86.5,-51.9,-64.75,0.07765424062161101,-0.03162277660172919,-0.2721024480093339,0.38137946523267413
219,0,-86.5,-51.9,-64.75,0.07765424062161101,-0.03162277660172919,-0.2721024480093339,0.38137946523267413
220,1,-86.5,-51.9,-64.75,0.07765424062161101,-0.03162277660172919,-0.2721024480093339,0.38137946523267413
221,1,-86.5,-51.9,-64.75,0.07765424062161101,-0.03162277660172919,-0.2721024480093339,0.38137946523267413
222,0,-86.5,-51.9,-64.75,0.07765424062161101,-0.03162277660172919,-0.2721024480093339,0.38137946523267413
223,1,-86.5,-51.9,-64.75,0.07765424062161101,-0.03162277660172919,-0.2721024480093339,0.38137946523267413
224,3,-86.5,-51.9,-64.75,0.07765424062161101,-0.03162277660172919,-0.2721024480093339,0.38137946523267413
225,0,-86.5,-51.9,-64.75,0.07765424062161101,-0.03162277660172919,-0.2721024480093339,0.38137946523267413
226,2,-86.5,-51.9,-64.75,0.07765424062161101,-0.03162277660172919,-0.2721024480093339,0.38137946523267413
227,2,-86.5,-51.9,-64.75,0.07765424062161101,-0.03162277660172919,-0.2721024480093339,0.38137946523267413
228,1,-86.5,-51.9,-64.75,0.07765424062161101,-0.03162277660172919,-0.2721024480093339,0.38137946523267413
229,2,-86.5,-51.9,-64.75,0.07765424062161101,-0.03162277660172919,-0.2721024480093339,0.38137946523267413
230,2,-86.5,-51.9,-64.75,0.07765424062161101,-0.03162277660172919,-0.2721024480093339,0.38137946523267413
231,1,-86.5,-51.9,-64.75,0.07765424062161101,-0.03162277660172919,-0.2721024480093339,0.38137946523267413
232,3,-86.5,-51.9,-64.75,0.07765424062161101,-0.03162277660172919,-0.2721024480093339,0.38137946523267413
233,3,-86.5,-51.9,-64.75,0.07765424062161101,-0.03162277660172919,-0.2721024480093339,0.38137946523267413
234,2,-86.5,-51.9,-64.75,0.07765424062161101,-0.03162277660172919,-0.2721024480093339,0.38137946523267413
235,3,-86.5,-51.9,-57.666666666666664,0.07765424062161101,-0.03162277660172919,3.6714112912564083,3.7806883084797485
236,2,-86.5,-51.9,-64.75,0.07765424062161101,-0.03162277660172919,-0.2721024480093339,0.38137946523267413
237,0,-86.5,-51.9,-64.75,0.07765424062161101,-0.03162277660172919,-0.2721024480093339,0.38137946523267413
238,1,-86.5,-51.9,-64.75,0.07765424062161101,-0.03162277660172919,-0.2721024480093339,0.38137946523267413
239,2,-86.5,-51.9,-57.666666666666664,0.07765424062161101,-0.03162277660172919,3.6714112912564083,3.7806883084797485
240,2,-86.5,-51.9,-64.75,0.07765424062161101,-0.03162277660172919,-0.2721024480093339,0.38137946523267413
241,0,-86.5,-51.9,-57.666666666666664,0.07765424062161101,-0.03162277660172919,3.6714112912564083,3.7806883084797485
242,3,-86.5,-51.9,-64.75,0.07765424062161101,-0.03162277660172919,-0.2721024480093339,0.38137946523267413
243,0,-86.5,-51.9,-64.75,0.07765424062161101,-0.03162277660172919,-0.2721024480093339,0.38137946523267413
244,0,-86.5,-51.9,-57.666666666666664,0.07765424062161101,-0.03162277660172919,3.6714112912564083,3.7806883084797485
245,1,-86.5,-51.9,-64.75,0.07765424062161101,-0.03162277660172919,-0.2721024480093339,0.38137946523267413
246,0,-86.5,-51.9,-64.75,0.07765424062161101,-0.03162277660172919,-0.2721024480093339,0.38137946523267413
247,1,-86.5,-51.9,-64.75,0.07765424062161101,-0.03162277660172919,-0.2721024480093339,0.38137946523267413
248,1,-86.5,-51.9,-64.75,0.07765424062161101,-0.03162277660172919,-0.2721024480093339,0.38137946523267413
249,2,-86.5,-51.9,-64.75,0.07765424062161101,-0.03162277660172919,-0.2721024480093339,0.38137946523267413
250,0,-86.5,-51.9,-64.75,0.07765424062161101,-0.03162277660172919,-0.2721024480093339,0.38137946523267413
251,0,-86.5,-51.9,-64.75,0.07765424062161101,-0.03162277660172919,-0.2721024480093339,0.38137946523267413
252,0,-86.5,-51.9,-57.666666666666664,0.07765424062161101,-0.03162277660172919,3.6714112912564083,3.7806883084797485
253,0,-86.5,-51.9,-64.75,0.07765424062161101,-0.03162277660172919,-0.2721024480093339,0.38137946523267413
254,0,-86.5,-51.9,-64.75,0.07765424062161101,-0.03162277660172919,-0.2721024480093339,0.38137946523267413
255,1,-86.5,-51.9,-64.75,0.07765424062161101,-0.03162277660172919,-0.2721024480093339,0.38137946523267413
256,0,-86.5,-51.9,-64.75,0.07765424062161101,-0.03162277660172919,-0.2721024480093339,0.38137946523267413
257,1,-86.5,-51.9,-64.75,0.07765424062161101,-0.03162277660172919,-0.2721024480093339,0.38137946523267413
258,0,-86.5,-51.9,-64.75,0.07765424062161101,-0.03162277660172919,-0.2721024480093339,0.38137946523267413
259,2,-86.5,-51.9,-64.75,0.07765424062161101,-0.03162277660172919,-0.2721024480093339,0.38137946523267413
260,0,-86.5,-51.9,-57.666666666666664,0.07765424062161101,-0.03162277660172919,3.6714112912564083,3.7806883084797485
261,3,-86.5,-51.9,-64.75,0.07765424062161101,-0.03162277660172919,-0.2721024480093339,0.38137946523267413
262,1,-86.5,-51.9,-64.75,0.07765424062161101,-0.03162277660172919,-0.2721024480093339,0.38137946523267413
263,2,-86.5,-51.9,-64.75,0.07765424062161101,-0.03162277660172919,-0.2721024480093339,0.38137946523267413
264,2,-86.5,-51.9,-64.75,0.07765424062161101,-0.03162277660172919,-0.2721024480093339,0.38137946523267413
265,1,-86.5,-51.9,-64.75,0.07765424062161101,-0.03162277660172919,-0.2721024480093339,0.38137946523267413
266,2,-86.5,-51.9,-64.75,0.07765424062161101,-0.03162277660172919,-0.2721024480093339,0.38137946523267413
267,1,-86.5,-51.9,-57.666666666666664,0.07765424062161101,-0.03162277660172919,3.6714112912564083,3.7806883084797485
268,4,-86.5,-51.9,-64.75,0.07765424062161101,-0.03162277660172919,-0.2721024480093339,0.38137946523267413
269,1,-86.5,-51.9,-64.75,0.07765424062161101,-0.03162277660172919,-0.2721024480093339,0.38137946523267413
270,3,-86.5,-51.9,-64.75,0.07765424062161101,-0.03162277660172919,-0.2721024480093339,0.38137946523267413
271,2,-86.5,-51.9,-64.75,0.07765424062161101,-0.03162277660172919,-0.2721024480093339,0.38137946523267413
272,2,-86.5,-51.9,-64.75,0.07765424062161101,-0.03162277660172919,-0.2721024480093339,0.38137946523267413
273,0,-86.5,-51.9,-64.75,0.07765424062161101,-0.03162277660172919,-0.2721024480093339,0.38137946523267413
274,3,-86.5,-51.9,-64.75,0.07765424062161101,-0.03162277660172919,-0.2721024480093339,0.38137946523267413
275,3,-86.5,-51.9,-64.75,0.07765424062161101,-0.03162277660172919,-0.2721024480093339,0.38137946523267413
276,4,-86.5,-51.9,-64.75,0.07765424062161101,-0.03162277660172919,-0.2721024480093339,0.38137946523267413
277,3,-86.5,-51.9,-64.75,0.07765424062161101,-0.03162277660172919,-0.2721024480093339,0.38137946523267413
278,0,-86.5,-51.9,-64.75,0.07765424062161101,-0.03162277660172919,-0.2721024480093339,0.38137946523267413
279,3,-86.5,-51.9,-64.75,0.07765424062161101,-0.03162277660172919,-0.2721024480093339,0.38137946523267413
280,2,-86.5,-51.9,-64.75,0.07765424062161101,-0.03162277660172919,-0.2721024480093339,0.38137946523267413
281,4,-86.5,-51.9,-64.75,0.07765424062161101,-0.03162277660172919,-0.2721024480093339,0.38137946523267413
282,2,-86.5,-51.9,-64.75,0.07765424062161101,-0.03162277660172919,-0.2721024480093339,0.38137946523267413
283,2,-86.5,-51.9,-64.75,0.07765424062161101,-0.03162277660172919,-0.2721024480093339,0.38137946523267413
284,2,-86.5,-51.9,-64.75,0.07765424062161101,-0.03162277660172919,-0.2721024480093339,0.38137946523267413
285,0,-86.5,-51.9,-64.75,0.07765424062161101,-0.03162277660172919,-0.2721024480093339,0.38137946523267413
286,3,-86.5,-51.9,-64.75,0.07765424062161101,-0.03162277660172919,-0.2721024480093339,0.38137946523267413
287,2,-86.5,-51.9,-64.75,0.07765424062161101,-0.03162277660172919,-0.2721024480093339,0.38137946523267413
288,0,-86.5,-51.9,-64.75,0.07765424062161101,-0.03162277660172919,-0.2721024480093339,0.38137946523267413
289,1,-86.5,-51.9,-64.75,0.07765424062161101,-0.03162277660172919,-0.2721024480093339,0.38137946523267413
290,2,-86.5,-51.9,-64.75,0.07765424062161101,-0.03162277660172919,-0.2721024480093339,0.38137946523267413
291,0,-86.5,-51.9,-64.75,0.07765424062161101,-0.03162277660172919,-0.2721024480093339,0.38137946523267413
292,0,-86.5,-51.9,-64.75,0.07765424062161101,-0.03162277660172919,-0.2721024480093339,0.38137946523267413
293,0,-86.5,-51.9,-57.666666666666664,0.07765424062161101,-0.03162277660172919,3.6714112912564083,3.7806883084797485
294,2,-86.5,-51.9,-64.75,0.07765424062161101,-0.03162277660172919,-0.2721024480093339,0.38137946523267413
295,3,-86.5,-51.9,-64.75,0.07765424062161101,-0.03162277660172919,-0.2721024480093339,0.38137946523267413
296,2,-86.5,-51.9,-64.75,0.07765424062161101,-0.03162277660172919,-0.2721024480093339,0.38137946523267413
297,3,-86.5,-51.9,-64.75,0.07765424062161101,-0.03162277660172919,-0.2721024480093339,0.38137946523267413
298,1,-86.5,-51.9,-64.75,0.07765424062161101,-0.03162277660172919,-0.2721024480093339,0.38137946523267413
299,0,-86.5,-51.9,-64.75,0.07765424062161101,-0.03162277660172919,-0.2721024480093339,0.38137946523267413
300,1,-86.5,-51.9,-64.75,0.07765424062161101,-0.03162277660172919,-0.2721024480093339,0.38137946523267413
301,1,-86.5,-51.9,-64.75,0.07765424062161101,-0.03162277660172919,-0.2721024480093339,0.38137946523267413
302,4,-86.5,-51.9,-64.75,0.07765424062161101,-0.03162277660172919,-0.2721024480093339,0.38137946523267413
303,0,-86.5,-51.9,-64.75,0.07765424062161101,-0.03162277660172919,-0.2721024480093339,0.38137946523267413
304,0,-86.5,-51.9,-64.75,0.07765424062161101,-0.03162277660172919,-0.2721024480093339,0.38137946523267413
305,2,-86.5,-51.9,-64.75,0.07765424062161101,-0.03162277660172919,-0.2721024480093339,0.38137946523267413
306,1,-86.5,-51.9,-64.75,0.07765424062161101,-0.03162277660172919,-0.2721024480093339,0.38137946523267413
307,1,-86.5,-51.9,-64.75,0.07765424062161101,-0.03162277660172919,-0.2721024480093339,0.38137946523267413
308,2,-86.5,-51.9,-64.75,0.07765424062161101,-0.03162277660172919,-0.2721024480093339,0.38137946523267413
309,0,-86.5,-51.9,-64.75,0.07765424062161101,-0.03162277660172919,-0.2721024480093339,0.38137946523267413
310,0,-86.5,-51.9,-64.75,0.07765424062161101,-0.03162277660172919,-0.2721024480093339,0.38137946523267413
311,2,-86.5,-51.9,-64.75,0.07765424062161101,-0.03162277660172919,-0.2721024480093339,0.38137946523267413
312,0,-86.5,-51.9,-64.75,0.07765424062161101,-0.03162277660172919,-0.2721024480093339,0.38137946523267413
313,1,-86.5,-51.9,-64.75,0.07765424062161101,-0.03162277660172919,-0.2721024480093339,0.38137946523267413
314,1,-86.5,-51.9,-64.75,0.07765424062161101,-0.03162277660172919,-0.2721024480093339,0.38137946523267413
315,4,-86.5,-51.9,-64.75,0.07765424062161101,-0.03162277660172919,-0.2721024480093339,0.38137946523267413
316,3,-86.5,-51.9,-64.75,0.07765424062161101,-0.03162277660172919,-0.2721024480093339,0.38137946523267413
317,1,-86.5,-51.9,-64.75,0.07765424062161101,-0.03162277660172919,-0.2721024480093339,0.38137946523267413
318,2,-86.5,-51.9,-64.75,0.07765424062161101,-0.03162277660172919,-0.2721024480093339,0.38137946523267413
319,0,-86.5,-51.9,-64.75,0.07765424062161101,-0.03162277660172919,-0.2721024480093339,0.38137946523267413
320,2,-86.5,-51.9,-57.666666666666664,0.07765424062161101,-0.03162277660172919,3.6714112912564083,3.7806883084797485
321,1,-86.5,-51.9,-64.75,0.07765424062161101,-0.03162277660172919,-0.2721024480093339,0.38137946523267413
322,0,-86.5,-51.9,-64.75,0.07765424062161101,-0.03162277660172919,-0.2721024480093339,0.38137946523267413
323,2,-86.5,-51.9,-64.75,0.07765424062161101,-0.03162277660172919,-0.2721024480093339,0.38137946523267413
324,2,-86.5,-51.9,-64.75,0.07765424062161101,-0.03162277660172919,-0.2721024480093339,0.38137946523267413
325,0,-86.5,-51.9,-64.75,0.07765424062161101,-0.03162277660172919,-0.2721024480093339,0.38137946523267413
326,1,-86.5,-51.9,-64.75,0.07765424062161101,-0.03162277660172919,-0.2721024480093339,0.38137946523267413
327,2,-86.5,-51.9,-64.75,0.07765424062161101,-0.03162277660172919,-0.2721024480093339,0.38137946523267413
328,1,-86.5,-51.9,-64.75,0.07765424062161101,-0.03162277660172919,-0.2721024480093339,0.38137946523267413
329,3,-86.5,-51.9,-64.75,0.07765424062161101,-0.03162277660172919,-0.2721024480093339,0.38137946523267413
330,4,-86.5,-51.9,-64.75,0.07765424062161101,-0.03162277660172919,-0.2721024480093339,0.38137946523267413
331,1,-86.5,-51.9,-64.75,0.07765424062161101,-0.03162277660172919,-0.2721024480093339,0.38137946523267413
332,0,-86.5,-51.9,-64.75,0.07765424062161101,-0.03162277660172919,-0.2721024480093339,0.38137946523267413
333,2,-86.5,-51.9,-64.75,0.07765424062161101,-0.03162277660172919,-0.2721024480093339,0.38137946523267413
334,2,-86.5,-51.9,-64.75,0.07765424062161101,-0.03162277660172919,-0.2721024480093339,0.38137946523267413
335,0,-86.5,-51.9,-57.666666666666664,0.07765424062161101,-0.03162277660172919,3.6714112912564083,3.7806883084797485
336,0,-86.5,-51.9,-64.75,0.07765424062161101,-0.03162277660172919,-0.2721024480093339,0.38137946523267413
337,0,-86.5,-51.9,-64.75,0.07765424062161101,-0.03162277660172919,-0.2721024480093339,0.38137946523267413
338,3,-86.5,-51.9,-64.75,0.07765424062161101,-0.03162277660172919,-0.2721024480093339,0.38137946523267413
339,2,-86.5,-51.9,-57.666666666666664,0.07765424062161101,-0.03162277660172919,3.6714112912564083,3.7806883084797485
340,2,-86.5,-51.9,-64.75,0.07765424062161101,-0.03162277660172919,-0.2721024480093339,0.38137946523267413
341,3,-86.5,-51.9,-64.75,0.07765424062161101,-0.03162277660172919,-0.2721024480093339,0.38137946523267413
342,0,-86.5,-51.9,-64.75,0.07765424062161101,-0.03162277660172919,-0.2721024480093339,0.38137946523267413
343,0,-86.5,-51.9,-64.75,0.07765424062161101,-0.03162277660172919,-0.2721024480093339,0.38137946523267413
344,0,-86.5,-51.9,-64.75,0.07765424062161101,-0.03162277660172919,-0.2721024480093339,0.38137946523267413
345,2,-86.5,-51.9,-64.75,0.07765424062161101,-0.03162277660172919,-0.2721024480093339,0.38137946523267413
346,0,-86.5,-51.9,-64.75,0.07765424062161101,-0.03162277660172919,-0.2721024480093339,0.38137946523267413
347,1,-86.5,-51.9,-64.75,0.07765424062161101,-0.03162277660172919,-0.2721024480093339,0.38137946523267413
348,2,-86.5,-51.9,-64.75,0.07765424062161101,-0.03162277660172919,-0.2721024480093339,0.38137946523267413
349,1,-86.5,-51.9,-64.75,0.07765424062161101,-0.03162277660172919,-0.2721024480093339,0.38137946523267413
350,0,-86.5,-51.9,-64.75,0.07765424062161101,-0.03162277660172919,-0.2721024480093339,0.38137946523267413
351,0,-86.5,-51.9,-64.75,0.07765424062161101,-0.03162277660172919,-0.2721024480093339,0.38137946523267413
352,0,-86.5,-51.9,-64.75,0.07765424062161101,-0.03162277660172919,-0.2721024480093339,0.38137946523267413
353,2,-86.5,-51.9,-64.75,0.07765424062161101,-0.03162277660172919,-0.2721024480093339,0.38137946523267413
354,0,-86.5,-51.9,-57.666666666666664,0.07765424062161101,-0.03162277660172919,3.6714112912564083,3.7806883084797485
355,1,-86.5,-51.9,-64.75,0.07765424062161101,-0.03162277660172919,-0.2721024480093339,0.38137946523267413
356,3,-86.5,-51.9,-64.75,0.07765424062161101,-0.03162277660172919,-0.2721024480093339,0.38137946523267413
357,2,-86.5,-51.9,-64.75,0.07765424062161101,-0.03162277660172919,-0.2721024480093339,0.38137946523267413
358,1,-86.5,-51.9,-64.75,0.07765424062161101,-0.03162277660172919,-0.2721024480093339,0.38137946523267413
359,1,-86.5,-51.9,-64.75,0.07765424062161101,-0.03162277660172919,-0.2721024480093339,0.38137946523267413
360,0,-86.5,-51.9,-64.75,0.07765424062161101,-0.03162277660172919,-0.2721024480093339,0.38137946523267413
361,2,-86.5,-51.9,-64.75,0.07765424062161101,-0.03162277660172919,-0.2721024480093339,0.38137946523267413
362,2,-86.5,-51.9,-64.75,0.07765424062161101,-0.03162277660172919,-0.2721024480093339,0.38137946523267413
363,1,-86.5,-51.9,-64.75,0.07765424062161101,-0.03162277660172919,-0.2721024480093339,0.38137946523267413
364,0,-86.5,-51.9,-64.75,0.07765424062161101,-0.03162277660172919,-0.2721024480093339,0.38137946523267413
365,2,-86.5,-51.9,-64.75,0.07765424062161101,-0.03162277660172919,-0.2721024480093339,0.38137946523267413
366,0,-86.5,-51.9,-57.666666666666664,0.07765424062161101,-0.03162277660172919,3.6714112912564083,3.7806883084797485
367,1,-86.5,-51.9,-64.75,0.07765424062161101,-0.03162277660172919,-0.2721024480093339,0.38137946523267413
368,4,-86.5,-51.9,-64.75,0.07765424062161101,-0.03162277660172919,-0.2721024480093339,0.38137946523267413
369,2,-86.5,-51.9,-64.75,0.07765424062161101,-0.03162277660172919,-0.2721024480093339,0.38137946523267413
370,0,-86.5,-51.9,-64.75,0.07765424062161101,-0.03162277660172919,-0.2721024480093339,0.38137946523267413
371,0,-86.5,-51.9,-64.75,0.07765424062161101,-0.03162277660172919,-0.2721024480093339,0.38137946523267413
372,2,-86.5,-51.9,-64.75,0.07765424062161101,-0.03162277660172919,-0.2721024480093339,0.38137946523267413
373,0,-86.5,-51.9,-64.75,0.07765424062161101,-0.03162277660172919,-0.2721024480093339,0.38137946523267413
374,0,-86.5,-51.9,-64.75,0.07765424062161101,-0.03162277660172919,-0.2721024480093339,0.38137946523267413
375,3,-86.5,-51.9,-64.75,0.07765424062161101,-0.03162277660172919,-0.2721024480093339,0.38137946523267413
376,2,-86.5,-51.9,-64.75,0.07765424062161101,-0.03162277660172919,-0.2721024480093339,0.38137946523267413
377,2,-86.5,-51.9,-64.75,0.07765424062161101,-0.03162277660172919,-0.2721024480093339,0.38137946523267413
378,2,-86.5,-51.9,-64.75,0.07765424062161101,-0.03162277660172919,-0.2721024480093339,0.38137946523267413
379,0,-86.5,-51.9,-64.75,0.07765424062161101,-0.03162277660172919,-0.2721024480093339,0.38137946523267413
380,1,-86.5,-51.9,-64.75,0.07765424062161101,-0.03162277660172919,-0.2721024480093339,0.38137946523267413
381,2,-86.5,-51.9,-64.75,0.07765424062161101,-0.03162277660172919,-0.2721024480093339,0.38137946523267413
382,3,-86.5,-51.9,-64.75,0.07765424062161101,-0.03162277660172919,-0.2721024480093339,0.38137946523267413
383,0,-86.5,-51.9,-64.75,0.07765424062161101,-0.03162277660172919,-0.2721024480093339,0.38137946523267413
384,1,-86.5,-51.9,-57.666666666666664,0.07765424062161101,-0.03162277660172919,3.6714112912564083,3.7806883084797485
385,3,-86.5,-51.9,-64.75,0.07765424062161101,-0.03162277660172919,-0.2721024480093339,0.38137946523267413
386,1,-86.5,-51.9,-64.75,0.07765424062161101,-0.03162277660172919,-0.2721024480093339,0.38137946523267413
387,2,-86.5,-50.333333333333336,-64.75,0.07765424062161101,31.59115382508157,-0.2721024480093339,31.940910513712517
388,0,-86.5,-51.9,-64.75,0.07765424062161101,-0.03162277660172919,-0.2721024480093339,0.38137946523267413
389,0,-86.5,-51.9,-64.75,0.07765424062161101,-0.03162277660172919,-0.2721024480093339,0.38137946523267413
390,2,-86.5,-51.9,-64.75,0.07765424062161101,-0.03162277660172919,-0.2721024480093339,0.38137946523267413
391,3,-86.5,-51.9,-64.75,0.07765424062161101,-0.03162277660172919,-0.2721024480093339,0.38137946523267413
392,3,-86.5,-51.9,-64.75,0.07765424062161101,-0.03162277660172919,-0.2721024480093339,0.38137946523267413
393,1,-86.5,-51.9,-64.75,0.07765424062161101,-0.03162277660172919,-0.2721024480093339,0.38137946523267413
394,2,-86.5,-51.9,-64.75,0.07765424062161101,-0.03162277660172919,-0.2721024480093339,0.38137946523267413
395,2,-86.5,-51.9,-64.75,0.07765424062161101,-0.03162277660172919,-0.2721024480093339,0.38137946523267413
396,1,-86.5,-51.9,-64.75,0.07765424062161101,-0.03162277660172919,-0.2721024480093339,0.38137946523267413
397,3,-86.5,-51.9,-64.75,0.07765424062161101,-0.03162277660172919,-0.2721024480093339,0.38137946523267413
398,4,-86.5,-51.9,-64.75,0.07765424062161101,-0.03162277660172919,-0.2721024480093339,0.38137946523267413
399,0,-86.5,-51.9,-64.75,0.07765424062161101,-0.03162277660172919,-0.2721024480093339,0.38137946523267413
400,0,-86.5,-51.9,-64.75,0.07765424062161101,-0.03162277660172919,-0.2721024480093339,0.38137946523267413
401,0,-86.5,-51.9,-64.75,0.07765424062161101,-0.03162277660172919,-0.2721024480093339,0.38137946523267413
402,1,-86.5,-51.9,-64.75,0.07765424062161101,-0.03162277660172919,-0.2721024480093339,0.38137946523267413
403,3,-86.5,-51.9,-64.75,0.07765424062161101,-0.03162277660172919,-0.2721024480093339,0.38137946523267413
404,2,-86.5,-51.9,-64.75,0.07765424062161101,-0.03162277660172919,-0.2721024480093339,0.38137946523267413
405,2,-86.5,-51.9,-64.75,0.07765424062161101,-0.03162277660172919,-0.2721024480093339,0.38137946523267413
406,3,-86.5,-51.9,-64.75,0.07765424062161101,-0.03162277660172919,-0.2721024480093339,0.38137946523267413
407,4,-86.5,-51.9,-64.75,0.07765424062161101,-0.03162277660172919,-0.2721024480093339,0.38137946523267413
408,1,-86.5,-51.9,-64.75,0.07765424062161101,-0.03162277660172919,-0.2721024480093339,0.38137946523267413
409,2,-86.5,-51.9,-64.75,0.07765424062161101,-0.03162277660172919,-0.2721024480093339,0.38137946523267413
410,1,-86.5,-51.9,-64.75,0.07765424062161101,-0.03162277660172919,-0.2721024480093339,0.38137946523267413
411,0,-86.5,-51.9,-64.75,0.07765424062161101,-0.03162277660172919,-0.2721024480093339,0.38137946523267413
412,2,-86.5,-51.9,-64.75,0.07765424062161101,-0.03162277660172919,-0.2721024480093339,0.38137946523267413
413,0,-86.5,-51.9,-57.666666666666664,0.07765424062161101,-0.03162277660172919,3.6714112912564083,3.7806883084797485
414,1,-86.5,-51.9,-64.75,0.07765424062161101,-0.03162277660172919,-0.2721024480093339,0.38137946523267413
415,3,-86.5,-51.9,-64.75,0.07765424062161101,-0.03162277660172919,-0.2721024480093339,0.38137946523267413
416,2,-86.5,-51.9,-64.75,0.07765424062161101,-0.03162277660172919,-0.2721024480093339,0.38137946523267413
417,1,-86.5,-51.9,-64.75,0.07765424062161101,-0.03162277660172919,-0.2721024480093339,0.38137946523267413
418,0,-86.5,-51.9,-64.75,0.07765424062161101,-0.03162277660172919,-0.2721024480093339,0.38137946523267413
419,2,-86.5,-51.9,-64.75,0.07765424062161101,-0.03162277660172919,-0.2721024480093339,0.38137946523267413
420,1,-86.5,-51.9,-64.75,0.07765424062161101,-0.03162277660172919,-0.2721024480093339,0.38137946523267413
421,0,-86.5,-51.9,-64.75,0.07765424062161101,-0.03162277660172919,-0.2721024480093339,0.38137946523267413
422,1,-86.5,-51.9,-64.75,0.07765424062161101,-0.03162277660172919,-0.2721024480093339,0.38137946523267413
423,0,-86.5,-51.9,-64.75,0.07765424062161101,-0.03162277660172919,-0.2721024480093339,0.38137946523267413
424,2,-86.5,-51.9,-64.75,0.07765424062161101,-0.03162277660172919,-0.2721024480093339,0.38137946523267413
425,2,-86.5,-51.9,-64.75,0.07765424062161101,-0.03162277660172919,-0.2721024480093339,0.38137946523267413
426,0,-86.5,-51.9,-64.75,0.07765424062161101,-0.03162277660172919,-0.2721024480093339,0.38137946523267413
427,2,-86.5,-51.9,-64.75,0.07765424062161101,-0.03162277660172919,-0.2721024480093339,0.38137946523267413
428,0,-86.5,-51.9,-57.666666666666664,0.07765424062161101,-0.03162277660172919,3.6714112912564083,3.7806883084797485
429,1,-86.5,-51.9,-64.75,0.07765424062161101,-0.03162277660172919,-0.2721024480093339,0.38137946523267413
430,0,-86.5,-51.9,-64.75,0.07765424062161101,-0.03162277660172919,-0.2721024480093339,0.38137946523267413
431,1,-86.5,-51.9,-64.75,0.07765424062161101,-0.03162277660172919,-0.2721024480093339,0.38137946523267413
432,4,-86.5,-51.9,-64.75,0.07765424062161101,-0.03162277660172919,-0.2721024480093339,0.38137946523267413
433,0,-86.5,-51.9,-64.75,0.07765424062161101,-0.03162277660172919,-0.2721024480093339,0.38137946523267413
434,2,-86.5,-51.9,-57.666666666666664,0.07765424062161101,-0.03162277660172919,3.6714112912564083,3.7806883084797485
435,2,-86.5,-51.9,-64.75,0.07765424062161101,-0.03162277660172919,-0.2721024480093339,0.38137946523267413
436,1,-86.5,-51.9,-64.75,0.07765424062161101,-0.03162277660172919,-0.2721024480093339,0.38137946523267413
437,2,-86.5,-51.9,-64.75,0.07765424062161101,-0.03162277660172919,-0.2721024480093339,0.38137946523267413
438,1,-86.5,-51.9,-57.666666666666664,0.07765424062161101,-0.03162277660172919,3.6714112912564083,3.7806883084797485
439,0,-86.5,-51.9,-64.75,0.07765424062161101,-0.03162277660172919,-0.2721024480093339,0.38137946523267413
440,2,-86.5,-51.9,-64.75,0.07765424062161101,-0.03162277660172919,-0.2721024480093339,0.38137946523267413
441,2,-86.5,-51.9,-64.75,0.07765424062161101,-0.03162277660172919,-0.2721024480093339,0.38137946523267413
442,1,-86.5,-51.9,-64.75,0.07765424062161101,-0.03162277660172919,-0.2721024480093339,0.38137946523267413
443,0,-86.5,-51.9,-64.75,0.07765424062161101,-0.03162277660172919,-0.2721024480093339,0.38137946523267413
444,1,-86.5,-51.9,-64.75,0.07765424062161101,-0.03162277660172919,-0.2721024480093339,0.38137946523267413
445,1,-86.5,-51.9,-64.75,0.07765424062161101,-0.03162277660172919,-0.2721024480093339,0.38137946523267413
446,2,-86.5,-51.9,-64.75,0.07765424062161101,-0.03162277660172919,-0.2721024480093339,0.38137946523267413
447,4,-86.5,-51.9,-57.666666666666664,0.07765424062161101,-0.03162277660172919,3.6714112912564083,3.7806883084797485
448,1,-86.5,-51.9,-64.75,0.07765424062161101,-0.03162277660172919,-0.2721024480093339,0.38137946523267413
449,0,-86.5,-51.9,-64.75,0.07765424062161101,-0.03162277660172919,-0.2721024480093339,0.38137946523267413
450,2,-86.5,-51.9,-64.75,0.07765424062161101,-0.03162277660172919,-0.2721024480093339,0.38137946523267413
451,1,-86.5,-51.9,-64.75,0.07765424062161101,-0.03162277660172919,-0.2721024480093339,0.38137946523267413
452,2,-86.5,-51.9,-64.75,0.07765424062161101,-0.03162277660172919,-0.2721024480093339,0.38137946523267413
453,1,-86.5,-51.9,-57.666666666666664,0.07765424062161101,-0.03162277660172919,3.6714112912564083,3.7806883084797485
454,1,-86.5,-51.9,-64.75,0.07765424062161101,-0.03162277660172919,-0.2721024480093339,0.38137946523267413
455,3,-86.5,-51.9,-64.75,0.07765424062161101,-0.03162277660172919,-0.2721024480093339,0.38137946523267413
456,2,-86.5,-51.9,-64.75,0.07765424062161101,-0.03162277660172919,-0.2721024480093339,0.38137946523267413
457,1,-86.5,-51.9,-64.75,0.07765424062161101,-0.03162277660172919,-0.2721024480093339,0.38137946523267413
458,1,-86.5,-51.9,-64.75,0.07765424062161101,-0.03162277660172919,-0.2721024480093339,0.38137946523267413
459,3,-86.5,-51.9,-64.75,0.07765424062161101,-0.03162277660172919,-0.2721024480093339,0.38137946523267413
460,0,-86.5,-51.9,-64.75,0.07765424062161101,-0.03162277660172919,-0.2721024480093339,0.38137946523267413
461,2,-86.5,-51.9,-64.75,0.07765424062161101,-0.03162277660172919,-0.2721024480093339,0.38137946523267413
462,2,-86.5,-51.9,-64.75,0.07765424062161101,-0.03162277660172919,-0.2721024480093339,0.38137946523267413
463,2,-86.5,-51.9,-64.75,0.07765424062161101,-0.03162277660172919,-0.2721024480093339,0.38137946523267413
464,2,-86.5,-51.9,-64.75,0.07765424062161101,-0.03162277660172919,-0.2721024480093339,0.38137946523267413
465,1,-86.5,-51.9,-64.75,0.07765424062161101,-0.03162277660172919,-0.2721024480093339,0.38137946523267413
466,3,-86.5,-51.9,-64.75,0.07765424062161101,-0.03162277660172919,-0.2721024480093339,0.38137946523267413
467,4,-86.5,-51.9,-64.75,0.07765424062161101,-0.03162277660172919,-0.2721024480093339,0.38137946523267413
468,2,-86.5,-51.9,-64.75,0.07765424062161101,-0.03162277660172919,-0.2721024480093339,0.38137946523267413
469,3,-86.5,-51.9,-64.75,0.07765424062161101,-0.03162277660172919,-0.2721024480093339,0.38137946523267413
470,2,-86.5,-51.9,-64.75,0.07765424062161101,-0.03162277660172919,-0.2721024480093339,0.38137946523267413
471,1,-86.5,-51.9,-64.75,0.07765424062161101,-0.03162277660172919,-0.2721024480093339,0.38137946523267413
472,1,-86.5,-51.9,-64.75,0.07765424062161101,-0.03162277660172919,-0.2721024480093339,0.38137946523267413
473,1,-86.5,-51.9,-64.75,0.07765424062161101,-0.03162277660172919,-0.2721024480093339,0.38137946523267413
474,1,-86.5,-51.9,-64.75,0.07765424062161101,-0.03162277660172919,-0.2721024480093339,0.38137946523267413
475,3,-86.5,-51.9,-64.75,0.07765424062161101,-0.03162277660172919,-0.2721024480093339,0.38137946523267413
476,0,-86.5,-51.9,-64.75,0.07765424062161101,-0.03162277660172919,-0.2721024480093339,0.38137946523267413
477,0,-86.5,-51.9,-64.75,0.07765424062161101,-0.03162277660172919,-0.2721024480093339,0.38137946523267413
478,2,-86.5,-51.9,-64.75,0.07765424062161101,-0.03162277660172919,-0.2721024480093339,0.38137946523267413
479,0,-86.5,-51.9,-64.75,0.07765424062161101,-0.03162277660172919,-0.2721024480093339,0.38137946523267413
480,1,-86.5,-51.9,-64.75,0.07765424062161101,-0.03162277660172919,-0.2721024480093339,0.38137946523267413
481,0,-86.5,-51.9,-57.666666666666664,0.07765424062161101,-0.03162277660172919,3.6714112912564083,3.7806883084797485
482,0,-86.5,-51.9,-64.75,0.07765424062161101,-0.03162277660172919,-0.2721024480093339,0.38137946523267413
483,0,-86.5,-51.9,-64.75,0.07765424062161101,-0.03162277660172919,-0.2721024480093339,0.38137946523267413
484,1,-86.5,-51.9,-64.75,0.07765424062161101,-0.03162277660172919,-0.2721024480093339,0.38137946523267413
485,3,-86.5,-51.9,-64.75,0.07765424062161101,-0.03162277660172919,-0.2721024480093339,0.38137946523267413
486,3,-86.5,-51.9,-64.75,0.07765424062161101,-0.03162277660172919,-0.2721024480093339,0.38137946523267413
487,1,-86.5,-51.9,-64.75,0.07765424062161101,-0.03162277660172919,-0.2721024480093339,0.38137946523267413
488,0,-86.5,-51.9,-64.75,0.07765424062161101,-0.03162277660172919,-0.2721024480093339,0.38137946523267413
489,2,-86.5,-51.9,-64.75,0.07765424062161101,-0.03162277660172919,-0.2721024480093339,0.38137946523267413
490,3,-86.5,-51.9,-64.75,0.07765424062161101,-0.03162277660172919,-0.2721024480093339,0.38137946523267413
491,0,-86.5,-51.9,-64.75,0.07765424062161101,-0.03162277660172919,-0.2721024480093339,0.38137946523267413
492,2,-86.5,-51.9,-64.75,0.07765424062161101,-0.03162277660172919,-0.2721024480093339,0.38137946523267413
493,0,-86.5,-51.9,-64.75,0.07765424062161101,-0.03162277660172919,-0.2721024480093339,0.38137946523267413
494,2,-86.5,-51.9,-64.75,0.07765424062161101,-0.03162277660172919,-0.2721024480093339,0.38137946523267413
495,0,-86.5,-51.9,-64.75,0.07765424062161101,-0.03162277660172919,-0.2721024480093339,0.38137946523267413
496,0,-86.5,-51.9,-64.75,0.07765424062161101,-0.03162277660172919,-0.2721024480093339,0.38137946523267413
497,2,-86.5,-51.9,-57.666666666666664,0.07765424062161101,-0.03162277660172919,3.6714112912564083,3.7806883084797485
498,0,-99.2,-51.9,-64.75,-12.864719196313551,-0.03162277660172919,-0.2721024480093339,13.168444420924615
499,1,-86.5,-51.9,-64.75,0.07765424062161101,-0.03162277660172919,-0.2721024480093339,0.38137946523267413
500,2,-86.5,-51.9,-64.75,0.07765424062161101,-0.03162277660172919,-0.2721024480093339,0.38137946523267413
501,1,-86.5,-51.9,-64.75,0.07765424062161101,-0.03162277660172919,-0.2721024480093339,0.38137946523267413
502,2,-86.5,-51.9,-64.75,0.07765424062161101,-0.03162277660172919,-0.2721024480093339,0.38137946523267413
503,3,-86.5,-51.9,-64.75,0.07765424062161101,-0.03162277660172919,-0.2721024480093339,0.38137946523267413
504,2,-86.5,-51.9,-64.75,0.07765424062161101,-0.03162277660172919,-0.2721024480093339,0.38137946523267413
505,2,-86.5,-51.9,-64.75,0.07765424062161101,-0.03162277660172919,-0.2721024480093339,0.38137946523267413
506,3,-86.5,-51.9,-64.75,0.07765424062161101,-0.03162277660172919,-0.2721024480093339,0.38137946523267413
507,3,-86.5,-51.9,-64.75,0.07765424062161101,-0.03162277660172919,-0.2721024480093339,0.38137946523267413
508,0,-86.5,-51.9,-64.75,0.07765424062161101,-0.03162277660172919,-0.2721024480093339,0.38137946523267413
509,0,-86.5,-51.9,-64.75,0.07765424062161101,-0.03162277660172919,-0.2721024480093339,0.38137946523267413
510,2,-86.5,-51.9,-64.75,0.07765424062161101,-0.03162277660172919,-0.2721024480093339,0.38137946523267413
511,3,-86.5,-51.9,-64.75,0.07765424062161101,-0.03162277660172919,-0.2721024480093339,0.38137946523267413
512,4,-86.5,-51.9,-64.75,0.07765424062161101,-0.03162277660172919,-0.2721024480093339,0.38137946523267413
513,2,-86.5,-51.9,-64.75,0.07765424062161101,-0.03162277660172919,-0.2721024480093339,0.38137946523267413
514,2,-86.5,-51.9,-64.75,0.07765424062161101,-0.03162277660172919,-0.2721024480093339,0.38137946523267413
515,1,-86.5,-51.9,-64.75,0.07765424062161101,-0.03162277660172919,-0.2721024480093339,0.38137946523267413
516,2,-86.5,-51.9,-64.75,0.07765424062161101,-0.03162277660172919,-0.2721024480093339,0.38137946523267413
517,0,-86.5,-51.9,-64.75,0.07765424062161101,-0.03162277660172919,-0.2721024480093339,0.38137946523267413
518,0,-86.5,-51.9,-64.75,0.07765424062161101,-0.03162277660172919,-0.2721024480093339,0.38137946523267413
519,2,-86.5,-51.9,-64.75,0.07765424062161101,-0.03162277660172919,-0.2721024480093339,0.38137946523267413
520,3,-86.5,-51.9,-64.75,0.07765424062161101,-0.03162277660172919,-0.2721024480093339,0.38137946523267413
521,0,-86.5,-51.9,-64.75,0.07765424062161101,-0.03162277660172919,-0.2721024480093339,0.38137946523267413
522,0,-86.5,-51.9,-64.75,0.07765424062161101,-0.03162277660172919,-0.2721024480093339,0.38137946523267413
523,2,-86.5,-51.9,-64.75,0.07765424062161101,-0.03162277660172919,-0.2721024480093339,0.38137946523267413
524,4,-86.5,-51.9,-57.666666666666664,0.07765424062161101,-0.03162277660172919,3.6714112912564083,3.7806883084797485
525,0,-86.5,-51.9,-64.75,0.07765424062161101,-0.03162277660172919,-0.2721024480093339,0.38137946523267413
526,1,-86.5,-51.9,-64.75,0.07765424062161101,-0.03162277660172919,-0.2721024480093339,0.38137946523267413
527,2,-86.5,-51.9,-64.75,0.07765424062161101,-0.03162277660172919,-0.2721024480093339,0.38137946523267413
528,0,-86.5,-51.9,-57.666666666666664,0.07765424062161101,-0.03162277660172919,3.6714112912564083,3.7806883084797485
529,1,-86.5,-51.9,-64.75,0.07765424062161101,-0.03162277660172919,-0.2721024480093339,0.38137946523267413
530,0,-86.5,-51.9,-64.75,0.07765424062161101,-0.03162277660172919,-0.2721024480093339,0.38137946523267413
531,0,-86.5,-51.9,-64.75,0.07765424062161101,-0.03162277660172919,-0.2721024480093339,0.38137946523267413
532,1,-86.5,-51.9,-64.75,0.07765424062161101,-0.03162277660172919,-0.2721024480093339,0.38137946523267413
533,3,-86.5,-51.9,-64.75,0.07765424062161101,-0.03162277660172919,-0.2721024480093339,0.38137946523267413
534,3,-86.5,-51.9,-64.75,0.07765424062161101,-0.03162277660172919,-0.2721024480093339,0.38137946523267413
535,2,-86.5,-51.9,-64.75,0.07765424062161101,-0.03162277660172919,-0.2721024480093339,0.38137946523267413
536,0,-86.5,-51.9,-64.75,0.07765424062161101,-0.03162277660172919,-0.2721024480093339,0.38137946523267413
537,1,-86.5,-51.9,-64.75,0.07765424062161101,-0.03162277660172919,-0.2721024480093339,0.38137946523267413
538,2,-86.5,-51.9,-64.75,0.07765424062161101,-0.03162277660172919,-0.2721024480093339,0.38137946523267413
539,2,-86.5,-51.9,-64.75,0.07765424062161101,-0.03162277660172919,-0.2721024480093339,0.38137946523267413
540,2,-86.5,-51.9,-64.75,0.07765424062161101,-0.03162277660172919,-0.2721024480093339,0.38137946523267413
541,2,-86.5,-51.9,-64.75,0.07765424062161101,-0.03162277660172919,-0.2721024480093339,0.38137946523267413
542,4,-86.5,-51.9,-64.75,0.07765424062161101,-0.03162277660172919,-0.2721024480093339,0.38137946523267413
543,1,-86.5,-51.9,-64.75,0.07765424062161101,-0.03162277660172919,-0.2721024480093339,0.38137946523267413
544,2,-86.5,-51.9,-64.75,0.07765424062161101,-0.03162277660172919,-0.2721024480093339,0.38137946523267413
545,1,-86.5,-51.9,-64.75,0.07765424062161101,-0.03162277660172919,-0.2721024480093339,0.38137946523267413
546,1,-86.5,-51.9,-64.75,0.07765424062161101,-0.03162277660172919,-0.2721024480093339,0.38137946523267413
547,1,-86.5,-51.9,-57.666666666666664,0.07765424062161101,-0.03162277660172919,3.6714112912564083,3.7806883084797485
548,1,-86.5,-51.9,-64.75,0.07765424062161101,-0.03162277660172919,-0.2721024480093339,0.38137946523267413
549,3,-86.5,-51.9,-64.75,0.07765424062161101,-0.03162277660172919,-0.2721024480093339,0.38137946523267413
550,0,-86.5,-51.9,-64.75,0.07765424062161101,-0.03162277660172919,-0.2721024480093339,0.38137946523267413
551,0,-86.5,-51.9,-64.75,0.07765424062161101,-0.03162277660172919,-0.2721024480093339,0.38137946523267413
552,4,-86.5,-51.9,-64.75,0.07765424062161101,-0.03162277660172919,-0.2721024480093339,0.38137946523267413
553,2,-86.5,-51.9,-57.666666666666664,0.07765424062161101,-0.03162277660172919,3.6714112912564083,3.7806883084797485
554,0,-86.5,-51.9,-64.75,0.07765424062161101,-0.03162277660172919,-0.2721024480093339,0.38137946523267413
555,0,-86.5,-51.9,-64.75,0.07765424062161101,-0.03162277660172919,-0.2721024480093339,0.38137946523267413
556,2,-86.5,-51.9,-64.75,0.07765424062161101,-0.03162277660172919,-0.2721024480093339,0.38137946523267413
557,2,-86.5,-51.9,-64.75,0.07765424062161101,-0.03162277660172919,-0.2721024480093339,0.38137946523267413
558,0,-86.5,-51.9,-64.75,0.07765424062161101,-0.03162277660172919,-0.2721024480093339,0.38137946523267413
559,1,-86.5,-51.9,-64.75,0.07765424062161101,-0.03162277660172919,-0.2721024480093339,0.38137946523267413
560,0,-86.5,-51.9,-64.75,0.07765424062161101,-0.03162277660172919,-0.2721024480093339,0.38137946523267413
561,1,-86.5,-51.9,-64.75,0.07765424062161101,-0.03162277660172919,-0.2721024480093339,0.38137946523267413
562,2,-86.5,-51.9,-64.75,0.07765424062161101,-0.03162277660172919,-0.2721024480093339,0.38137946523267413
563,0,-86.5,-51.9,-64.75,0.07765424062161101,-0.03162277660172919,-0.2721024480093339,0.38137946523267413
564,1,-86.5,-51.9,-64.75,0.07765424062161101,-0.03162277660172919,-0.2721024480093339,0.38137946523267413
565,1,-86.5,-51.9,-64.75,0.07765424062161101,-0.03162277660172919,-0.2721024480093339,0.38137946523267413
566,2,-86.5,-51.9,-64.75,0.07765424062161101,-0.03162277660172919,-0.2721024480093339,0.38137946523267413
567,1,-86.5,-51.9,-64.75,0.07765424062161101,-0.03162277660172919,-0.2721024480093339,0.38137946523267413
568,2,-99.2,-51.9,-64.75,-12.864719196313551,-0.03162277660172919,-0.2721024480093339,13.168444420924615
569,1,-86.5,-51.9,-64.75,0.07765424062161101,-0.03162277660172919,-0.2721024480093339,0.38137946523267413
570,1,-86.5,-51.9,-64.75,0.07765424062161101,-0.03162277660172919,-0.2721024480093339,0.38137946523267413
571,0,-86.5,-51.9,-64.75,0.07765424062161101,-0.03162277660172919,-0.2721024480093339,0.38137946523267413
572,0,-86.5,-51.9,-64.75,0.07765424062161101,-0.03162277660172919,-0.2721024480093339,0.38137946523267413
573,1,-86.5,-51.9,-64.75,0.07765424062161101,-0.03162277660172919,-0.2721024480093339,0.38137946523267413
574,1,-86.5,-51.9,-64.75,0.07765424062161101,-0.03162277660172919,-0.2721024480093339,0.38137946523267413
575,1,-86.5,-51.9,-64.75,0.07765424062161101,-0.03162277660172919,-0.2721024480093339,0.38137946523267413
576,2,-86.5,-51.9,-64.75,0.07765424062161101,-0.03162277660172919,-0.2721024480093339,0.38137946523267413
577,1,-86.5,-51.9,-64.75,0.07765424062161101,-0.03162277660172919,-0.2721024480093339,0.38137946523267413
578,2,-86.5,-51.9,-64.75,0.07765424062161101,-0.03162277660172919,-0.2721024480093339,0.38137946523267413
579,0,-86.5,-51.9,-64.75,0.07765424062161101,-0.03162277660172919,-0.2721024480093339,0.38137946523267413
580,0,-86.5,-51.9,-64.75,0.07765424062161101,-0.03162277660172919,-0.2721024480093339,0.38137946523267413
581,0,-86.5,-51.9,-64.75,0.07765424062161101,-0.03162277660172919,-0.2721024480093339,0.38137946523267413
582,3,-86.5,-51.9,-64.75,0.07765424062161101,-0.03162277660172919,-0.2721024480093339,0.38137946523267413
583,1,-86.5,-51.9,-64.75,0.07765424062161101,-0.03162277660172919,-0.2721024480093339,0.38137946523267413
584,2,-86.5,-51.9,-64.75,0.07765424062161101,-0.03162277660172919,-0.2721024480093339,0.38137946523267413
585,2,-86.5,-51.9,-64.75,0.07765424062161101,-0.03162277660172919,-0.2721024480093339,0.38137946523267413
586,4,-86.5,-51.9,-64.75,0.07765424062161101,-0.03162277660172919,-0.2721024480093339,0.38137946523267413
587,2,-86.5,-51.9,-64.75,0.07765424062161101,-0.03162277660172919,-0.2721024480093339,0.38137946523267413
588,0,-86.5,-51.9,-64.75,0.07765424062161101,-0.03162277660172919,-0.2721024480093339,0.38137946523267413
589,1,-86.5,-51.9,-64.75,0.07765424062161101,-0.03162277660172919,-0.2721024480093339,0.38137946523267413
590,1,-86.5,-51.9,-64.75,0.07765424062161101,-0.03162277660172919,-0.2721024480093339,0.38137946523267413
591,1,-86.5,-51.9,-64.75,0.07765424062161101,-0.03162277660172919,-0.2721024480093339,0.38137946523267413
592,1,-86.5,-51.9,-57.666666666666664,0.07765424062161101,-0.03162277660172919,3.6714112912564083,3.7806883084797485
593,1,-86.5,-51.9,-64.75,0.07765424062161101,-0.03162277660172919,-0.2721024480093339,0.38137946523267413
594,2,-86.5,-51.9,-64.75,0.07765424062161101,-0.03162277660172919,-0.2721024480093339,0.38137946523267413
595,4,-86.5,-51.9,-57.666666666666664,0.07765424062161101,-0.03162277660172919,3.6714112912564083,3.7806883084797485
596,1,-86.5,-51.9,-64.75,0.07765424062161101,-0.03162277660172919,-0.2721024480093339,0.38137946523267413
597,3,-86.5,-51.9,-64.75,0.07765424062161101,-0.03162277660172919,-0.2721024480093339,0.38137946523267413
598,1,-86.5,-51.9,-64.75,0.07765424062161101,-0.03162277660172919,-0.2721024480093339,0.38137946523267413
599,0,-86.5,-51.9,-64.75,0.07765424062161101,-0.03162277660172919,-0.2721024480093339,0.38137946523267413
600,0,-86.5,-51.9,-64.75,0.07765424062161101,-0.03162277660172919,-0.2721024480093339,0.38137946523267413
601,2,-86.5,-51.9,-64.75,0.07765424062161101,-0.03162277660172919,-0.2721024480093339,0.38137946523267413
602,2,-86.5,-51.9,-64.75,0.07765424062161101,-0.03162277660172919,-0.2721024480093339,0.38137946523267413
603,1,-86.5,-51.9,-64.75,0.07765424062161101,-0.03162277660172919,-0.2721024480093339,0.38137946523267413
604,2,-86.5,-51.9,-64.75,0.07765424062161101,-0.03162277660172919,-0.2721024480093339,0.38137946523267413
605,0,-86.5,-51.9,-64.75,0.07765424062161101,-0.03162277660172919,-0.2721024480093339,0.38137946523267413
606,0,-86.5,-51.9,-64.75,0.07765424062161101,-0.03162277660172919,-0.2721024480093339,0.38137946523267413
607,1,-86.5,-51.9,-64.75,0.07765424062161101,-0.03162277660172919,-0.2721024480093339,0.38137946523267413
608,0,-86.5,-51.9,-64.75,0.07765424062161101,-0.03162277660172919,-0.2721024480093339,0.38137946523267413
609,2,-86.5,-51.9,-64.75,0.07765424062161101,-0.03162277660172919,-0.2721024480093339,0.38137946523267413
610,2,-86.5,-51.9,-64.75,0.07765424062161101,-0.03162277660172919,-0.2721024480093339,0.38137946523267413
611,0,-86.5,-51.9,-64.75,0.07765424062161101,-0.03162277660172919,-0.2721024480093339,0.38137946523267413
612,2,-86.5,-51.9,-64.75,0.07765424062161101,-0.03162277660172919,-0.2721024480093339,0.38137946523267413
613,0,-86.5,-51.9,-64.75,0.07765424062161101,-0.03162277660172919,-0.2721024480093339,0.38137946523267413
614,0,-86.5,-51.9,-64.75,0.07765424062161101,-0.03162277660172919,-0.2721024480093339,0.38137946523267413
615,2,-86.5,-51.9,-64.75,0.07765424062161101,-0.03162277660172919,-0.2721024480093339,0.38137946523267413
616,2,-86.5,-51.9,-64.75,0.07765424062161101,-0.03162277660172919,-0.2721024480093339,0.38137946523267413
617,2,-86.5,-51.9,-64.75,0.07765424062161101,-0.03162277660172919,-0.2721024480093339,0.38137946523267413
618,0,-86.5,-51.9,-64.75,0.07765424062161101,-0.03162277660172919,-0.2721024480093339,0.38137946523267413
619,0,-86.5,-51.9,-64.75,0.07765424062161101,-0.03162277660172919,-0.2721024480093339,0.38137946523267413
620,0,-86.5,-51.9,-57.666666666666664,0.07765424062161101,-0.03162277660172919,3.6714112912564083,3.7806883084797485
621,1,-86.5,-51.9,-64.75,0.07765424062161101,-0.03162277660172919,-0.2721024480093339,0.38137946523267413
622,2,-86.5,-51.9,-64.75,0.07765424062161101,-0.03162277660172919,-0.2721024480093339,0.38137946523267413
623,4,-86.5,-51.9,-64.75,0.07765424062161101,-0.03162277660172919,-0.2721024480093339,0.38137946523267413
624,2,-86.5,-51.9,-64.75,0.07765424062161101,-0.03162277660172919,-0.2721024480093339,0.38137946523267413
625,0,-86.5,-51.9,-64.75,0.07765424062161101,-0.03162277660172919,-0.2721024480093339,0.38137946523267413
626,3,-86.5,-51.9,-64.75,0.07765424062161101,-0.03162277660172919,-0.2721024480093339,0.38137946523267413
627,1,-86.5,-51.9,-64.75,0.07765424062161101,-0.03162277660172919,-0.2721024480093339,0.38137946523267413
628,2,-86.5,-51.9,-64.75,0.07765424062161101,-0.03162277660172919,-0.2721024480093339,0.38137946523267413
629,1,-86.5,-51.9,-64.75,0.07765424062161101,-0.03162277660172919,-0.2721024480093339,0.38137946523267413
630,3,-86.5,-51.9,-64.75,0.07765424062161101,-0.03162277660172919,-0.2721024480093339,0.38137946523267413
631,0,-86.5,-51.9,-64.75,0.07765424062161101,-0.03162277660172919,-0.2721024480093339,0.38137946523267413
632,2,-86.5,-51.9,-64.75,0.07765424062161101,-0.03162277660172919,-0.2721024480093339,0.38137946523267413
633,2,-86.5,-51.9,-64.75,0.07765424062161101,-0.03162277660172919,-0.2721024480093339,0.38137946523267413
634,0,-86.5,-51.9,-64.75,0.07765424062161101,-0.03162277660172919,-0.2721024480093339,0.38137946523267413
635,2,-86.5,-51.9,-64.75,0.07765424062161101,-0.03162277660172919,-0.2721024480093339,0.38137946523267413
636,2,-86.5,-51.9,-64.75,0.07765424062161101,-0.03162277660172919,-0.2721024480093339,0.38137946523267413
637,2,-86.5,-51.9,-64.75,0.07765424062161101,-0.03162277660172919,-0.2721024480093339,0.38137946523267413
638,3,-86.5,-51.9,-64.75,0.07765424062161101,-0.03162277660172919,-0.2721024480093339,0.38137946523267413
639,4,-86.5,-51.9,-64.75,0.07765424062161101,-0.03162277660172919,-0.2721024480093339,0.38137946523267413
640,4,-86.5,-51.9,-64.75,0.07765424062161101,-0.03162277660172919,-0.2721024480093339,0.38137946523267413
641,0,-86.5,-51.9,-64.75,0.07765424062161101,-0.03162277660172919,-0.2721024480093339,0.38137946523267413
642,0,-86.5,-51.9,-64.75,0.07765424062161101,-0.03162277660172919,-0.2721024480093339,0.38137946523267413
643,1,-86.5,-51.9,-57.666666666666664,0.07765424062161101,-0.03162277660172919,3.6714112912564083,3.7806883084797485
644,2,-86.5,-51.9,-64.75,0.07765424062161101,-0.03162277660172919,-0.2721024480093339,0.38137946523267413
645,2,-86.5,-51.9,-64.75,0.07765424062161101,-0.03162277660172919,-0.2721024480093339,0.38137946523267413
646,0,-86.5,-51.9,-64.75,0.07765424062161101,-0.03162277660172919,-0.2721024480093339,0.38137946523267413
647,2,-86.5,-51.9,-64.75,0.07765424062161101,-0.03162277660172919,-0.2721024480093339,0.38137946523267413
648,3,-86.5,-51.9,-64.75,0.07765424062161101,-0.03162277660172919,-0.2721024480093339,0.38137946523267413
649,1,-86.5,-51.9,-64.75,0.07765424062161101,-0.03162277660172919,-0.2721024480093339,0.38137946523267413
650,2,-86.5,-51.9,-64.75,0.07765424062161101,-0.03162277660172919,-0.2721024480093339,0.38137946523267413
651,0,-86.5,-51.9,-64.75,0.07765424062161101,-0.03162277660172919,-0.2721024480093339,0.38137946523267413
652,0,-86.5,-51.9,-64.75,0.07765424062161101,-0.03162277660172919,-0.2721024480093339,0.38137946523267413
653,0,-86.5,-51.9,-64.75,0.07765424062161101,-0.03162277660172919,-0.2721024480093339,0.38137946523267413
654,2,-86.5,-51.9,-64.75,0.07765424062161101,-0.03162277660172919,-0.2721024480093339,0.38137946523267413
655,2,-86.5,-51.9,-64.75,0.07765424062161101,-0.03162277660172919,-0.2721024480093339,0.38137946523267413
656,2,-86.5,-51.9,-64.75,0.07765424062161101,-0.03162277660172919,-0.2721024480093339,0.38137946523267413
657,3,-86.5,-51.9,-64.75,0.07765424062161101,-0.03162277660172919,-0.2721024480093339,0.38137946523267413
658,1,-86.5,-51.9,-64.75,0.07765424062161101,-0.03162277660172919,-0.2721024480093339,0.38137946523267413
659,0,-86.5,-51.9,-64.75,0.07765424062161101,-0.03162277660172919,-0.2721024480093339,0.38137946523267413
660,2,-86.5,-51.9,-64.75,0.07765424062161101,-0.03162277660172919,-0.2721024480093339,0.38137946523267413
661,1,-86.5,-51.9,-64.75,0.07765424062161101,-0.03162277660172919,-0.2721024480093339,0.38137946523267413
662,2,-86.5,-51.9,-64.75,0.07765424062161101,-0.03162277660172919,-0.2721024480093339,0.38137946523267413
663,1,-86.5,-51.9,-64.75,0.07765424062161101,-0.03162277660172919,-0.2721024480093339,0.38137946523267413
664,2,-86.5,-51.9,-57.666666666666664,0.07765424062161101,-0.03162277660172919,3.6714112912564083,3.7806883084797485
665,3,-86.5,-51.9,-64.75,0.07765424062161101,-0.03162277660172919,-0.2721024480093339,0.38137946523267413
666,0,-86.5,-51.9,-64.75,0.07765424062161101,-0.03162277660172919,-0.2721024480093339,0.38137946523267413
667,3,-86.5,-51.9,-64.75,0.07765424062161101,-0.03162277660172919,-0.2721024480093339,0.38137946523267413
668,3,-86.5,-51.9,-64.75,0.07765424062161101,-0.03162277660172919,-0.2721024480093339,0.38137946523267413
669,1,-86.5,-51.9,-64.75,0.07765424062161101,-0.03162277660172919,-0.2721024480093339,0.38137946523267413
670,2,-86.5,-51.9,-64.75,0.07765424062161101,-0.03162277660172919,-0.2721024480093339,0.38137946523267413
671,2,-86.5,-51.9,-64.75,0.07765424062161101,-0.03162277660172919,-0.2721024480093339,0.38137946523267413
672,1,-99.2,-51.9,-64.75,-12.864719196313551,-0.03162277660172919,-0.2721024480093339,13.168444420924615
673,1,-86.5,-51.9,-64.75,0.07765424062161101,-0.03162277660172919,-0.2721024480093339,0.38137946523267413
674,0,-86.5,-51.9,-64.75,0.07765424062161101,-0.03162277660172919,-0.2721024480093339,0.38137946523267413
675,0,-86.5,-51.9,-64.75,0.07765424062161101,-0.03162277660172919,-0.2721024480093339,0.38137946523267413
676,1,-86.5,-51.9,-64.75,0.07765424062161101,-0.03162277660172919,-0.2721024480093339,0.38137946523267413
677,1,-86.5,-51.9,-64.75,0.07765424062161101,-0.03162277660172919,-0.2721024480093339,0.38137946523267413
678,0,-86.5,-51.9,-64.75,0.07765424062161101,-0.03162277660172919,-0.2721024480093339,0.38137946523267413
679,2,-86.5,-51.9,-64.75,0.07765424062161101,-0.03162277660172919,-0.2721024480093339,0.38137946523267413
680,2,-86.5,-51.9,-64.75,0.07765424062161101,-0.03162277660172919,-0.2721024480093339,0.38137946523267413
681,1,-86.5,-51.9,-64.75,0.07765424062161101,-0.03162277660172919,-0.2721024480093339,0.38137946523267413
682,1,-86.5,-51.9,-57.666666666666664,0.07765424062161101,-0.03162277660172919,3.6714112912564083,3.7806883084797485
683,1,-86.5,-51.9,-64.75,0.07765424062161101,-0.03162277660172919,-0.2721024480093339,0.38137946523267413
684,2,-86.5,-51.9,-64.75,0.07765424062161101,-0.03162277660172919,-0.2721024480093339,0.38137946523267413
685,2,-86.5,-51.9,-64.75,0.07765424062161101,-0.03162277660172919,-0.2721024480093339,0.38137946523267413
686,0,-86.5,-51.9,-64.75,0.07765424062161101,-0.03162277660172919,-0.2721024480093339,0.38137946523267413
687,2,-86.5,-51.9,-64.75,0.07765424062161101,-0.03162277660172919,-0.2721024480093339,0.38137946523267413
688,0,-86.5,-51.9,-64.75,0.07765424062161101,-0.03162277660172919,-0.2721024480093339,0.38137946523267413
689,0,-86.5,-51.9,-64.75,0.07765424062161101,-0.03162277660172919,-0.2721024480093339,0.38137946523267413
690,0,-86.5,-51.9,-64.75,0.07765424062161101,-0.03162277660172919,-0.2721024480093339,0.38137946523267413
691,1,-86.5,-51.9,-64.75,0.07765424062161101,-0.03162277660172919,-0.2721024480093339,0.38137946523267413
692,0,-86.5,-51.9,-64.75,0.07765424062161101,-0.03162277660172919,-0.2721024480093339,0.38137946523267413
693,3,-86.5,-51.9,-64.75,0.07765424062161101,-0.03162277660172919,-0.2721024480093339,0.38137946523267413
694,1,-86.5,-51.9,-64.75,0.07765424062161101,-0.03162277660172919,-0.2721024480093339,0.38137946523267413
695,4,-86.5,-51.9,-64.75,0.07765424062161101,-0.03162277660172919,-0.2721024480093339,0.38137946523267413
696,0,-99.2,-51.9,-64.75,-12.864719196313551,-0.03162277660172919,-0.2721024480093339,13.168444420924615
697,1,-86.5,-51.9,-64.75,0.07765424062161101,-0.03162277660172919,-0.2721024480093339,0.38137946523267413
698,1,-86.5,-51.9,-64.75,0.07765424062161101,-0.03162277660172919,-0.2721024480093339,0.38137946523267413
699,2,-86.5,-51.9,-64.75,0.07765424062161101,-0.03162277660172919,-0.2721024480093339,0.38137946523267413
700,1,-86.5,-51.9,-64.75,0.07765424062161101,-0.03162277660172919,-0.2721024480093339,0.38137946523267413
701,3,-86.5,-51.9,-64.75,0.07765424062161101,-0.03162277660172919,-0.2721024480093339,0.38137946523267413
702,2,-86.5,-51.9,-64.75,0.07765424062161101,-0.03162277660172919,-0.2721024480093339,0.38137946523267413
703,1,-86.5,-51.9,-64.75,0.07765424062161101,-0.03162277660172919,-0.2721024480093339,0.38137946523267413
704,2,-86.5,-51.9,-64.75,0.07765424062161101,-0.03162277660172919,-0.2721024480093339,0.38137946523267413
705,0,-86.5,-51.9,-64.75,0.07765424062161101,-0.03162277660172919,-0.2721024480093339,0.38137946523267413
706,3,-86.5,-51.9,-64.75,0.07765424062161101,-0.03162277660172919,-0.2721024480093339,0.38137946523267413
707,2,-86.5,-51.9,-64.75,0.07765424062161101,-0.03162277660172919,-0.2721024480093339,0.38137946523267413
708,1,-86.5,-51.9,-64.75,0.07765424062161101,-0.03162277660172919,-0.2721024480093339,0.38137946523267413
709,1,-86.5,-51.9,-64.75,0.07765424062161101,-0.03162277660172919,-0.2721024480093339,0.38137946523267413
710,1,-86.5,-51.9,-64.75,0.07765424062161101,-0.03162277660172919,-0.2721024480093339,0.38137946523267413
711,1,-86.5,-51.9,-64.75,0.07765424062161101,-0.03162277660172919,-0.2721024480093339,0.38137946523267413
712,4,-86.5,-51.9,-57.666666666666664,0.07765424062161101,-0.03162277660172919,3.6714112912564083,3.7806883084797485
713,1,-86.5,-51.9,-64.75,0.07765424062161101,-0.03162277660172919,-0.2721024480093339,0.38137946523267413
714,2,-86.5,-51.9,-64.75,0.07765424062161101,-0.03162277660172919,-0.2721024480093339,0.38137946523267413
715,0,-86.5,-51.9,-64.75,0.07765424062161101,-0.03162277660172919,-0.2721024480093339,0.38137946523267413
716,0,-86.5,-51.9,-64.75,0.07765424062161101,-0.03162277660172919,-0.2721024480093339,0.38137946523267413
717,3,-86.5,-51.9,-64.75,0.07765424062161101,-0.03162277660172919,-0.2721024480093339,0.38137946523267413
718,3,-86.5,-51.9,-64.75,0.07765424062161101,-0.03162277660172919,-0.2721024480093339,0.38137946523267413
719,3,-86.5,-51.9,-64.75,0.07765424062161101,-0.03162277660172919,-0.2721024480093339,0.38137946523267413
720,2,-86.5,-51.9,-64.75,0.07765424062161101,-0.03162277660172919,-0.2721024480093339,0.38137946523267413
721,2,-86.5,-51.9,-64.75,0.07765424062161101,-0.03162277660172919,-0.2721024480093339,0.38137946523267413
722,2,-86.5,-51.9,-64.75,0.07765424062161101,-0.03162277660172919,-0.2721024480093339,0.38137946523267413
723,2,-86.5,-51.9,-64.75,0.07765424062161101,-0.03162277660172919,-0.2721024480093339,0.38137946523267413
724,2,-86.5,-51.9,-64.75,0.07765424062161101,-0.03162277660172919,-0.2721024480093339,0.38137946523267413
725,1,-86.5,-51.9,-64.75,0.07765424062161101,-0.03162277660172919,-0.2721024480093339,0.38137946523267413
726,2,-86.5,-51.9,-64.75,0.07765424062161101,-0.03162277660172919,-0.2721024480093339,0.38137946523267413
727,2,-86.5,-51.9,-64.75,0.07765424062161101,-0.03162277660172919,-0.2721024480093339,0.38137946523267413
728,0,-86.5,-51.9,-64.75,0.07765424062161101,-0.03162277660172919,-0.2721024480093339,0.38137946523267413
729,3,-86.5,-51.9,-64.75,0.07765424062161101,-0.03162277660172919,-0.2721024480093339,0.38137946523267413
730,2,-86.5,-51.9,-64.75,0.07765424062161101,-0.03162277660172919,-0.2721024480093339,0.38137946523267413
731,1,-86.5,-51.9,-64.75,0.07765424062161101,-0.03162277660172919,-0.2721024480093339,0.38137946523267413
732,3,-86.5,-51.9,-64.75,0.07765424062161101,-0.03162277660172919,-0.2721024480093339,0.38137946523267413
733,3,-86.5,-51.9,-64.75,0.07765424062161101,-0.03162277660172919,-0.2721024480093339,0.38137946523267413
734,2,-86.5,-51.9,-64.75,0.07765424062161101,-0.03162277660172919,-0.2721024480093339,0.38137946523267413
735,0,-86.5,-51.9,-64.75,0.07765424062161101,-0.03162277660172919,-0.2721024480093339,0.38137946523267413
736,1,-86.5,-51.9,-64.75,0.07765424062161101,-0.03162277660172919,-0.2721024480093339,0.38137946523267413
737,2,-86.5,-51.9,-64.75,0.07765424062161101,-0.03162277660172919,-0.2721024480093339,0.38137946523267413
738,3,-86.5,-51.9,-64.75,0.07765424062161101,-0.03162277660172919,-0.2721024480093339,0.38137946523267413
739,2,-86.5,-51.9,-64.75,0.07765424062161101,-0.03162277660172919,-0.2721024480093339,0.38137946523267413
740,1,-86.5,-51.9,-64.75,0.07765424062161101,-0.03162277660172919,-0.2721024480093339,0.38137946523267413
741,0,-86.5,-51.9,-64.75,0.07765424062161101,-0.03162277660172919,-0.2721024480093339,0.38137946523267413
742,0,-86.5,-51.9,-64.75,0.07765424062161101,-0.03162277660172919,-0.2721024480093339,0.38137946523267413
743,0,-86.5,-51.9,-64.75,0.07765424062161101,-0.03162277660172919,-0.2721024480093339,0.38137946523267413
744,2,-86.5,-51.9,-64.75,0.07765424062161101,-0.03162277660172919,-0.2721024480093339,0.38137946523267413
745,2,-86.5,-51.9,-64.75,0.07765424062161101,-0.03162277660172919,-0.2721024480093339,0.38137946523267413
746,2,-86.5,-51.9,-64.75,0.07765424062161101,-0.03162277660172919,-0.2721024480093339,0.38137946523267413
747,2,-86.5,-51.9,-64.75,0.07765424062161101,-0.03162277660172919,-0.2721024480093339,0.38137946523267413
748,3,-86.5,-51.9,-64.75,0.07765424062161101,-0.03162277660172919,-0.2721024480093339,0.38137946523267413
749,0,-86.5,-51.9,-57.666666666666664,0.07765424062161101,-0.03162277660172919,3.6714112912564083,3.7806883084797485
750,0,-86.5,-51.9,-64.75,0.07765424062161101,-0.03162277660172919,-0.2721024480093339,0.38137946523267413
751,0,-86.5,-51.9,-64.75,0.07765424062161101,-0.03162277660172919,-0.2721024480093339,0.38137946523267413
752,0,-86.5,-51.9,-64.75,0.07765424062161101,-0.03162277660172919,-0.2721024480093339,0.38137946523267413
753,2,-86.5,-51.9,-64.75,0.07765424062161101,-0.03162277660172919,-0.2721024480093339,0.38137946523267413
754,0,-86.5,-51.9,-64.75,0.07765424062161101,-0.03162277660172919,-0.2721024480093339,0.38137946523267413
755,1,-86.5,-51.9,-64.75,0.07765424062161101,-0.03162277660172919,-0.2721024480093339,0.38137946523267413
756,1,-86.5,-51.9,-64.75,0.07765424062161101,-0.03162277660172919,-0.2721024480093339,0.38137946523267413
757,2,-86.5,-51.9,-64.75,0.07765424062161101,-0.03162277660172919,-0.2721024480093339,0.38137946523267413
758,3,-86.5,-51.9,-64.75,0.07765424062161101,-0.03162277660172919,-0.2721024480093339,0.38137946523267413
759,2,-86.5,-51.9,-64.75,0.07765424062161101,-0.03162277660172919,-0.2721024480093339,0.38137946523267413
760,0,-86.5,-51.9,-64.75,0.07765424062161101,-0.03162277660172919,-0.2721024480093339,0.38137946523267413
761,0,-86.5,-51.9,-64.75,0.07765424062161101,-0.03162277660172919,-0.2721024480093339,0.38137946523267413
762,2,-86.5,-51.9,-64.75,0.07765424062161101,-0.03162277660172919,-0.2721024480093339,0.38137946523267413
763,0,-86.5,-51.9,-64.75,0.07765424062161101,-0.03162277660172919,-0.2721024480093339,0.38137946523267413
764,1,-86.5,-51.9,-64.75,0.07765424062161101,-0.03162277660172919,-0.2721024480093339,0.38137946523267413
765,1,-86.5,-51.9,-64.75,0.07765424062161101,-0.03162277660172919,-0.2721024480093339,0.38137946523267413
766,3,-86.5,-51.9,-57.666666666666664,0.07765424062161101,-0.03162277660172919,3.6714112912564083,3.7806883084797485
767,1,-86.5,-51.9,-64.75,0.07765424062161101,-0.03162277660172919,-0.2721024480093339,0.38137946523267413
768,0,-86.5,-51.9,-64.75,0.07765424062161101,-0.03162277660172919,-0.2721024480093339,0.38137946523267413
769,0,-86.5,-51.9,-64.75,0.07765424062161101,-0.03162277660172919,-0.2721024480093339,0.38137946523267413
770,2,-86.5,-51.9,-64.75,0.07765424062161101,-0.03162277660172919,-0.2721024480093339,0.38137946523267413
771,3,-86.5,-51.9,-64.75,0.07765424062161101,-0.03162277660172919,-0.2721024480093339,0.38137946523267413
772,3,-86.5,-51.9,-64.75,0.07765424062161101,-0.03162277660172919,-0.2721024480093339,0.38137946523267413
773,2,-86.5,-51.9,-64.75,0.07765424062161101,-0.03162277660172919,-0.2721024480093339,0.38137946523267413
774,1,-86.5,-51.9,-64.75,0.07765424062161101,-0.03162277660172919,-0.2721024480093339,0.38137946523267413
775,2,-86.5,-51.9,-64.75,0.07765424062161101,-0.03162277660172919,-0.2721024480093339,0.38137946523267413
776,0,-86.5,-51.9,-64.75,0.07765424062161101,-0.03162277660172919,-0.2721024480093339,0.38137946523267413
777,2,-86.5,-51.9,-64.75,0.07765424062161101,-0.03162277660172919,-0.2721024480093339,0.38137946523267413
778,0,-86.5,-51.9,-64.75,0.07765424062161101,-0.03162277660172919,-0.2721024480093339,0.38137946523267413
779,2,-86.5,-51.9,-64.75,0.07765424062161101,-0.03162277660172919,-0.2721024480093339,0.38137946523267413
780,1,-86.5,-51.9,-64.75,0.07765424062161101,-0.03162277660172919,-0.2721024480093339,0.38137946523267413
781,1,-86.5,-51.9,-57.666666666666664,0.07765424062161101,-0.03162277660172919,3.6714112912564083,3.7806883084797485
782,2,-86.5,-51.9,-57.666666666666664,0.07765424062161101,-0.03162277660172919,3.6714112912564083,3.7806883084797485
783,4,-86.5,-51.9,-64.75,0.07765424062161101,-0.03162277660172919,-0.2721024480093339,0.38137946523267413
784,3,-86.5,-51.9,-64.75,0.07765424062161101,-0.03162277660172919,-0.2721024480093339,0.38137946523267413
785,2,-86.5,-51.9,-64.75,0.07765424062161101,-0.03162277660172919,-0.2721024480093339,0.38137946523267413
786,1,-86.5,-51.9,-64.75,0.07765424062161101,-0.03162277660172919,-0.2721024480093339,0.38137946523267413
787,2,-86.5,-51.9,-64.75,0.07765424062161101,-0.03162277660172919,-0.2721024480093339,0.38137946523267413
788,0,-86.5,-51.9,-64.75,0.07765424062161101,-0.03162277660172919,-0.2721024480093339,0.38137946523267413
789,4,-86.5,-51.9,-64.75,0.07765424062161101,-0.03162277660172919,-0.2721024480093339,0.38137946523267413
790,0,-86.5,-51.9,-64.75,0.07765424062161101,-0.03162277660172919,-0.2721024480093339,0.38137946523267413
791,2,-86.5,-51.9,-64.75,0.07765424062161101,-0.03162277660172919,-0.2721024480093339,0.38137946523267413
792,2,-86.5,-51.9,-64.75,0.07765424062161101,-0.03162277660172919,-0.2721024480093339,0.38137946523267413
793,2,-86.5,-51.9,-57.666666666666664,0.07765424062161101,-0.03162277660172919,3.6714112912564083,3.7806883084797485
794,0,-86.5,-51.9,-64.75,0.07765424062161101,-0.03162277660172919,-0.2721024480093339,0.38137946523267413
795,4,-86.5,-51.9,-64.75,0.07765424062161101,-0.03162277660172919,-0.2721024480093339,0.38137946523267413
796,0,-86.5,-51.9,-64.75,0.07765424062161101,-0.03162277660172919,-0.2721024480093339,0.38137946523267413
797,1,-86.5,-51.9,-64.75,0.07765424062161101,-0.03162277660172919,-0.2721024480093339,0.38137946523267413
798,1,-86.5,-51.9,-57.666666666666664,0.07765424062161101,-0.03162277660172919,3.6714112912564083,3.7806883084797485
799,1,-86.5,-51.9,-64.75,0.07765424062161101,-0.03162277660172919,-0.2721024480093339,0.38137946523267413
800,0,-86.5,-51.9,-64.75,0.07765424062161101,-0.03162277660172919,-0.2721024480093339,0.38137946523267413
801,2,-86.5,-51.9,-64.75,0.07765424062161101,-0.03162277660172919,-0.2721024480093339,0.38137946523267413
802,2,-86.5,-51.9,-64.75,0.07765424062161101,-0.03162277660172919,-0.2721024480093339,0.38137946523267413
803,0,-86.5,-51.9,-64.75,0.07765424062161101,-0.03162277660172919,-0.2721024480093339,0.38137946523267413
804,3,-86.5,-51.9,-64.75,0.07765424062161101,-0.03162277660172919,-0.2721024480093339,0.38137946523267413
805,1,-86.5,-51.9,-64.75,0.07765424062161101,-0.03162277660172919,-0.2721024480093339,0.38137946523267413
806,0,-86.5,-51.9,-64.75,0.07765424062161101,-0.03162277660172919,-0.2721024480093339,0.38137946523267413
807,1,-86.5,-51.9,-64.75,0.07765424062161101,-0.03162277660172919,-0.2721024480093339,0.38137946523267413
808,0,-86.5,-51.9,-64.75,0.07765424062161101,-0.03162277660172919,-0.2721024480093339,0.38137946523267413
809,2,-86.5,-51.9,-64.75,0.07765424062161101,-0.03162277660172919,-0.2721024480093339,0.38137946523267413
810,1,-86.5,-51.9,-64.75,0.07765424062161101,-0.03162277660172919,-0.2721024480093339,0.38137946523267413
811,2,-86.5,-51.9,-64.75,0.07765424062161101,-0.03162277660172919,-0.2721024480093339,0.38137946523267413
812,1,-86.5,-51.9,-64.75,0.07765424062161101,-0.03162277660172919,-0.2721024480093339,0.38137946523267413
813,0,-86.5,-51.9,-64.75,0.07765424062161101,-0.03162277660172919,-0.2721024480093339,0.38137946523267413
814,1,-86.5,-51.9,-64.75,0.07765424062161101,-0.03162277660172919,-0.2721024480093339,0.38137946523267413
815,4,-86.5,-51.9,-64.75,0.07765424062161101,-0.03162277660172919,-0.2721024480093339,0.38137946523267413
816,2,-86.5,-51.9,-64.75,0.07765424062161101,-0.03162277660172919,-0.2721024480093339,0.38137946523267413
817,1,-86.5,-51.9,-64.75,0.07765424062161101,-0.03162277660172919,-0.2721024480093339,0.38137946523267413
818,2,-86.5,-51.9,-64.75,0.07765424062161101,-0.03162277660172919,-0.2721024480093339,0.38137946523267413
819,3,-86.5,-51.9,-64.75,0.07765424062161101,-0.03162277660172919,-0.2721024480093339,0.38137946523267413
820,0,-86.5,-51.9,-64.75,0.07765424062161101,-0.03162277660172919,-0.2721024480093339,0.38137946523267413
821,0,-86.5,-51.9,-64.75,0.07765424062161101,-0.03162277660172919,-0.2721024480093339,0.38137946523267413
822,3,-86.5,-51.9,-64.75,0.07765424062161101,-0.03162277660172919,-0.2721024480093339,0.38137946523267413
823,1,-86.5,-51.9,-64.75,0.07765424062161101,-0.03162277660172919,-0.2721024480093339,0.38137946523267413
824,0,-86.5,-51.9,-64.75,0.07765424062161101,-0.03162277660172919,-0.2721024480093339,0.38137946523267413
825,0,-86.5,-51.9,-64.75,0.07765424062161101,-0.03162277660172919,-0.2721024480093339,0.38137946523267413
826,1,-86.5,-51.9,-64.75,0.07765424062161101,-0.03162277660172919,-0.2721024480093339,0.38137946523267413
827,3,-86.5,-51.9,-64.75,0.07765424062161101,-0.03162277660172919,-0.2721024480093339,0.38137946523267413
828,0,-86.5,-51.9,-64.75,0.07765424062161101,-0.03162277660172919,-0.2721024480093339,0.38137946523267413
829,2,-86.5,-51.9,-64.75,0.07765424062161101,-0.03162277660172919,-0.2721024480093339,0.38137946523267413
830,2,-86.5,-51.9,-64.75,0.07765424062161101,-0.03162277660172919,-0.2721024480093339,0.38137946523267413
831,0,-86.5,-51.9,-64.75,0.07765424062161101,-0.03162277660172919,-0.2721024480093339,0.38137946523267413
832,3,-86.5,-51.9,-57.666666666666664,0.07765424062161101,-0.03162277660172919,3.6714112912564083,3.7806883084797485
833,0,-86.5,-51.9,-64.75,0.07765424062161101,-0.03162277660172919,-0.2721024480093339,0.38137946523267413
834,0,-86.5,-51.9,-64.75,0.07765424062161101,-0.03162277660172919,-0.2721024480093339,0.38137946523267413
835,2,-86.5,-51.9,-64.75,0.07765424062161101,-0.03162277660172919,-0.2721024480093339,0.38137946523267413
836,0,-86.5,-51.9,-64.75,0.07765424062161101,-0.03162277660172919,-0.2721024480093339,0.38137946523267413
837,2,-86.5,-51.9,-64.75,0.07765424062161101,-0.03162277660172919,-0.2721024480093339,0.38137946523267413
838,0,-86.5,-51.9,-64.75,0.07765424062161101,-0.03162277660172919,-0.2721024480093339,0.38137946523267413
839,1,-86.5,-51.9,-57.666666666666664,0.07765424062161101,-0.03162277660172919,3.6714112912564083,3.7806883084797485
840,0,-86.5,-51.9,-64.75,0.07765424062161101,-0.03162277660172919,-0.2721024480093339,0.38137946523267413
841,1,-86.5,-51.9,-64.75,0.07765424062161101,-0.03162277660172919,-0.2721024480093339,0.38137946523267413
842,1,-86.5,-51.9,-64.75,0.07765424062161101,-0.03162277660172919,-0.2721024480093339,0.38137946523267413
843,2,-86.5,-51.9,-64.75,0.07765424062161101,-0.03162277660172919,-0.2721024480093339,0.38137946523267413
844,0,-86.5,-51.9,-64.75,0.07765424062161101,-0.03162277660172919,-0.2721024480093339,0.38137946523267413
845,0,-86.5,-51.9,-64.75,0.07765424062161101,-0.03162277660172919,-0.2721024480093339,0.38137946523267413
846,2,-86.5,-51.9,-64.75,0.07765424062161101,-0.03162277660172919,-0.2721024480093339,0.38137946523267413
847,1,-86.5,-51.9,-64.75,0.07765424062161101,-0.03162277660172919,-0.2721024480093339,0.38137946523267413
848,1,-86.5,-51.9,-64.75,0.07765424062161101,-0.03162277660172919,-0.2721024480093339,0.38137946523267413
849,0,-86.5,-51.9,-64.75,0.07765424062161101,-0.03162277660172919,-0.2721024480093339,0.38137946523267413
850,1,-86.5,-51.9,-64.75,0.07765424062161101,-0.03162277660172919,-0.2721024480093339,0.38137946523267413
851,0,-86.5,-51.9,-64.75,0.07765424062161101,-0.03162277660172919,-0.2721024480093339,0.38137946523267413
852,1,-86.5,-51.9,-57.666666666666664,0.07765424062161101,-0.03162277660172919,3.6714112912564083,3.7806883084797485
853,2,-86.5,-51.9,-64.75,0.07765424062161101,-0.03162277660172919,-0.2721024480093339,0.38137946523267413
854,3,-86.5,-51.9,-64.75,0.07765424062161101,-0.03162277660172919,-0.2721024480093339,0.38137946523267413
855,2,-86.5,-51.9,-64.75,0.07765424062161101,-0.03162277660172919,-0.2721024480093339,0.38137946523267413
856,2,-86.5,-51.9,-64.75,0.07765424062161101,-0.03162277660172919,-0.2721024480093339,0.38137946523267413
857,1,-86.5,-51.9,-64.75,0.07765424062161101,-0.03162277660172919,-0.2721024480093339,0.38137946523267413
858,1,-86.5,-51.9,-64.75,0.07765424062161101,-0.03162277660172919,-0.2721024480093339,0.38137946523267413
859,2,-86.5,-51.9,-64.75,0.07765424062161101,-0.03162277660172919,-0.2721024480093339,0.38137946523267413
860,0,-86.5,-51.9,-64.75,0.07765424062161101,-0.03162277660172919,-0.2721024480093339,0.38137946523267413
861,3,-86.5,-51.9,-64.75,0.07765424062161101,-0.03162277660172919,-0.2721024480093339,0.38137946523267413
862,2,-86.5,-51.9,-64.75,0.07765424062161101,-0.03162277660172919,-0.2721024480093339,0.38137946523267413
863,2,-86.5,-51.9,-64.75,0.07765424062161101,-0.03162277660172919,-0.2721024480093339,0.38137946523267413
864,0,-86.5,-51.9,-64.75,0.07765424062161101,-0.03162277660172919,-0.2721024480093339,0.38137946523267413
865,0,-86.5,-51.9,-57.666666666666664,0.07765424062161101,-0.03162277660172919,3.6714112912564083,3.7806883084797485
866,2,-86.5,-51.9,-64.75,0.07765424062161101,-0.03162277660172919,-0.2721024480093339,0.38137946523267413
867,3,-86.5,-51.9,-64.75,0.07765424062161101,-0.03162277660172919,-0.2721024480093339,0.38137946523267413
868,1,-86.5,-51.9,-64.75,0.07765424062161101,-0.03162277660172919,-0.2721024480093339,0.38137946523267413
869,0,-86.5,-51.9,-64.75,0.07765424062161101,-0.03162277660172919,-0.2721024480093339,0.38137946523267413
870,2,-86.5,-51.9,-64.75,0.07765424062161101,-0.03162277660172919,-0.2721024480093339,0.38137946523267413
871,0,-86.5,-51.9,-57.666666666666664,0.07765424062161101,-0.03162277660172919,3.6714112912564083,3.7806883084797485
872,2,-86.5,-51.9,-64.75,0.07765424062161101,-0.03162277660172919,-0.2721024480093339,0.38137946523267413
873,0,-86.5,-51.9,-64.75,0.07765424062161101,-0.03162277660172919,-0.2721024480093339,0.38137946523267413
874,0,-86.5,-51.9,-64.75,0.07765424062161101,-0.03162277660172919,-0.2721024480093339,0.38137946523267413
875,0,-86.5,-51.9,-64.75,0.07765424062161101,-0.03162277660172919,-0.2721024480093339,0.38137946523267413
876,2,-86.5,-51.9,-64.75,0.07765424062161101,-0.03162277660172919,-0.2721024480093339,0.38137946523267413
877,1,-86.5,-51.9,-64.75,0.07765424062161101,-0.03162277660172919,-0.2721024480093339,0.38137946523267413
878,0,-86.5,-51.9,-64.75,0.07765424062161101,-0.03162277660172919,-0.2721024480093339,0.38137946523267413
879,2,-86.5,-51.9,-64.75,0.07765424062161101,-0.03162277660172919,-0.2721024480093339,0.38137946523267413
880,0,-86.5,-51.9,-64.75,0.07765424062161101,-0.03162277660172919,-0.2721024480093339,0.38137946523267413
881,3,-86.5,-51.9,-64.75,0.07765424062161101,-0.03162277660172919,-0.2721024480093339,0.38137946523267413
882,0,-86.5,-51.9,-57.666666666666664,0.07765424062161101,-0.03162277660172919,3.6714112912564083,3.7806883084797485
883,0,-86.5,-51.9,-64.75,0.07765424062161101,-0.03162277660172919,-0.2721024480093339,0.38137946523267413
884,4,-86.5,-51.9,-64.75,0.07765424062161101,-0.03162277660172919,-0.2721024480093339,0.38137946523267413
885,1,-86.5,-51.9,-64.75,0.07765424062161101,-0.03162277660172919,-0.2721024480093339,0.38137946523267413
886,2,-86.5,-51.9,-64.75,0.07765424062161101,-0.03162277660172919,-0.2721024480093339,0.38137946523267413
887,3,-86.5,-51.9,-64.75,0.07765424062161101,-0.03162277660172919,-0.2721024480093339,0.38137946523267413
888,1,-86.5,-51.9,-64.75,0.07765424062161101,-0.03162277660172919,-0.2721024480093339,0.38137946523267413
889,1,-86.5,-51.9,-64.75,0.07765424062161101,-0.03162277660172919,-0.2721024480093339,0.38137946523267413
890,2,-86.5,-51.9,-64.75,0.07765424062161101,-0.03162277660172919,-0.2721024480093339,0.38137946523267413
891,1,-86.5,-51.9,-64.75,0.07765424062161101,-0.03162277660172919,-0.2721024480093339,0.38137946523267413
892,3,-86.5,-51.9,-57.666666666666664,0.07765424062161101,-0.03162277660172919,3.6714112912564083,3.7806883084797485
893,1,-86.5,-51.9,-64.75,0.07765424062161101,-0.03162277660172919,-0.2721024480093339,0.38137946523267413
894,2,-86.5,-51.9,-64.75,0.07765424062161101,-0.03162277660172919,-0.2721024480093339,0.38137946523267413
895,2,-86.5,-51.9,-64.75,0.07765424062161101,-0.03162277660172919,-0.2721024480093339,0.38137946523267413
896,0,-86.5,-51.9,-64.75,0.07765424062161101,-0.03162277660172919,-0.2721024480093339,0.38137946523267413
897,0,-86.5,-51.9,-64.75,0.07765424062161101,-0.03162277660172919,-0.2721024480093339,0.38137946523267413
898,0,-86.5,-51.9,-64.75,0.07765424062161101,-0.03162277660172919,-0.2721024480093339,0.38137946523267413
899,2,-86.5,-51.9,-64.75,0.07765424062161101,-0.03162277660172919,-0.2721024480093339,0.38137946523267413
900,2,-86.5,-51.9,-64.75,0.07765424062161101,-0.03162277660172919,-0.2721024480093339,0.38137946523267413
901,3,-86.5,-51.9,-64.75,0.07765424062161101,-0.03162277660172919,-0.2721024480093339,0.38137946523267413
902,2,-86.5,-51.9,-64.75,0.07765424062161101,-0.03162277660172919,-0.2721024480093339,0.38137946523267413
903,0,-86.5,-51.9,-64.75,0.07765424062161101,-0.03162277660172919,-0.2721024480093339,0.38137946523267413
904,1,-86.5,-51.9,-64.75,0.07765424062161101,-0.03162277660172919,-0.2721024480093339,0.38137946523267413
905,0,-86.5,-51.9,-64.75,0.07765424062161101,-0.03162277660172919,-0.2721024480093339,0.38137946523267413
906,1,-86.5,-51.9,-64.75,0.07765424062161101,-0.03162277660172919,-0.2721024480093339,0.38137946523267413
907,0,-86.5,-51.9,-64.75,0.07765424062161101,-0.03162277660172919,-0.2721024480093339,0.38137946523267413
908,0,-86.5,-51.9,-64.75,0.07765424062161101,-0.03162277660172919,-0.2721024480093339,0.38137946523267413
909,0,-86.5,-51.9,-64.75,0.07765424062161101,-0.03162277660172919,-0.2721024480093339,0.38137946523267413
910,0,-86.5,-51.9,-64.75,0.07765424062161101,-0.03162277660172919,-0.2721024480093339,0.38137946523267413
911,2,-86.5,-51.9,-64.75,0.07765424062161101,-0.03162277660172919,-0.2721024480093339,0.38137946523267413
912,2,-86.5,-51.9,-64.75,0.07765424062161101,-0.03162277660172919,-0.2721024480093339,0.38137946523267413
913,3,-86.5,-51.9,-64.75,0.07765424062161101,-0.03162277660172919,-0.2721024480093339,0.38137946523267413
914,2,-86.5,-51.9,-64.75,0.07765424062161101,-0.03162277660172919,-0.2721024480093339,0.38137946523267413
915,1,-86.5,-51.9,-64.75,0.07765424062161101,-0.03162277660172919,-0.2721024480093339,0.38137946523267413
916,2,-86.5,-51.9,-64.75,0.07765424062161101,-0.03162277660172919,-0.2721024480093339,0.38137946523267413
917,3,-86.5,-51.9,-57.666666666666664,0.07765424062161101,-0.03162277660172919,3.6714112912564083,3.7806883084797485
918,0,-86.5,-51.9,-64.75,0.07765424062161101,-0.03162277660172919,-0.2721024480093339,0.38137946523267413
919,0,-86.5,-51.9,-64.75,0.07765424062161101,-0.03162277660172919,-0.2721024480093339,0.38137946523267413
920,0,-86.5,-51.9,-64.75,0.07765424062161101,-0.03162277660172919,-0.2721024480093339,0.38137946523267413
921,2,-86.5,-51.9,-57.666666666666664,0.07765424062161101,-0.03162277660172919,3.6714112912564083,3.7806883084797485
922,0,-86.5,-51.9,-57.666666666666664,0.07765424062161101,-0.03162277660172919,3.6714112912564083,3.7806883084797485
923,2,-86.5,-51.9,-64.75,0.07765424062161101,-0.03162277660172919,-0.2721024480093339,0.38137946523267413
924,0,-86.5,-51.9,-64.75,0.07765424062161101,-0.03162277660172919,-0.2721024480093339,0.38137946523267413
925,3,-86.5,-51.9,-64.75,0.07765424062161101,-0.03162277660172919,-0.2721024480093339,0.38137946523267413
926,2,-86.5,-51.9,-64.75,0.07765424062161101,-0.03162277660172919,-0.2721024480093339,0.38137946523267413
927,0,-86.5,-51.9,-64.75,0.07765424062161101,-0.03162277660172919,-0.2721024480093339,0.38137946523267413
928,2,-86.5,-51.9,-64.75,0.07765424062161101,-0.03162277660172919,-0.2721024480093339,0.38137946523267413
929,2,-86.5,-51.9,-64.75,0.07765424062161101,-0.03162277660172919,-0.2721024480093339,0.38137946523267413
930,2,-86.5,-51.9,-64.75,0.07765424062161101,-0.03162277660172919,-0.2721024480093339,0.38137946523267413
931,1,-86.5,-51.9,-64.75,0.07765424062161101,-0.03162277660172919,-0.2721024480093339,0.38137946523267413
932,1,-86.5,-51.9,-64.75,0.07765424062161101,-0.03162277660172919,-0.2721024480093339,0.38137946523267413
933,0,-86.5,-51.9,-57.666666666666664,0.07765424062161101,-0.03162277660172919,3.6714112912564083,3.7806883084797485
934,1,-86.5,-51.9,-64.75,0.07765424062161101,-0.03162277660172919,-0.2721024480093339,0.38137946523267413
935,2,-86.5,-51.9,-64.75,0.07765424062161101,-0.03162277660172919,-0.2721024480093339,0.38137946523267413
936,3,-86.5,-51.9,-64.75,0.07765424062161101,-0.03162277660172919,-0.2721024480093339,0.38137946523267413
937,2,-86.5,-51.9,-64.75,0.07765424062161101,-0.03162277660172919,-0.2721024480093339,0.38137946523267413
938,0,-86.5,-51.9,-64.75,0.07765424062161101,-0.03162277660172919,-0.2721024480093339,0.38137946523267413
939,1,-86.5,-51.9,-64.75,0.07765424062161101,-0.03162277660172919,-0.2721024480093339,0.38137946523267413
940,2,-86.5,-51.9,-57.666666666666664,0.07765424062161101,-0.03162277660172919,3.6714112912564083,3.7806883084797485
941,2,-86.5,-51.9,-64.75,0.07765424062161101,-0.03162277660172919,-0.2721024480093339,0.38137946523267413
942,3,-86.5,-51.9,-64.75,0.07765424062161101,-0.03162277660172919,-0.2721024480093339,0.38137946523267413
943,1,-86.5,-51.9,-64.75,0.07765424062161101,-0.03162277660172919,-0.2721024480093339,0.38137946523267413
944,2,-86.5,-51.9,-64.75,0.07765424062161101,-0.03162277660172919,-0.2721024480093339,0.38137946523267413
945,1,-86.5,-51.9,-64.75,0.07765424062161101,-0.03162277660172919,-0.2721024480093339,0.38137946523267413
946,2,-86.5,-51.9,-64.75,0.07765424062161101,-0.03162277660172919,-0.2721024480093339,0.38137946523267413
947,1,-86.5,-51.9,-64.75,0.07765424062161101,-0.03162277660172919,-0.2721024480093339,0.38137946523267413
948,1,-86.5,-51.9,-64.75,0.07765424062161101,-0.03162277660172919,-0.2721024480093339,0.38137946523267413
949,2,-86.5,-51.9,-64.75,0.07765424062161101,-0.03162277660172919,-0.2721024480093339,0.38137946523267413
950,0,-86.5,-51.9,-64.75,0.07765424062161101,-0.03162277660172919,-0.2721024480093339,0.38137946523267413
951,0,-86.5,-51.9,-64.75,0.07765424062161101,-0.03162277660172919,-0.2721024480093339,0.38137946523267413
952,3,-86.5,-51.9,-57.666666666666664,0.07765424062161101,-0.03162277660172919,3.6714112912564083,3.7806883084797485
953,1,-86.5,-51.9,-64.75,0.07765424062161101,-0.03162277660172919,-0.2721024480093339,0.38137946523267413
954,2,-86.5,-51.9,-64.75,0.07765424062161101,-0.03162277660172919,-0.2721024480093339,0.38137946523267413
955,3,-86.5,-51.9,-64.75,0.07765424062161101,-0.03162277660172919,-0.2721024480093339,0.38137946523267413
956,2,-86.5,-51.9,-64.75,0.07765424062161101,-0.03162277660172919,-0.2721024480093339,0.38137946523267413
957,0,-86.5,-51.9,-64.75,0.07765424062161101,-0.03162277660172919,-0.2721024480093339,0.38137946523267413
958,1,-86.5,-51.9,-64.75,0.07765424062161101,-0.03162277660172919,-0.2721024480093339,0.38137946523267413
959,2,-86.5,-51.9,-64.75,0.07765424062161101,-0.03162277660172919,-0.2721024480093339,0.38137946523267413
960,0,-86.5,-51.9,-64.75,0.07765424062161101,-0.03162277660172919,-0.2721024480093339,0.38137946523267413
961,2,-86.5,-51.9,-57.666666666666664,0.07765424062161101,-0.03162277660172919,3.6714112912564083,3.7806883084797485
962,2,-86.5,-51.9,-64.75,0.07765424062161101,-0.03162277660172919,-0.2721024480093339,0.38137946523267413
963,1,-86.5,-51.9,-64.75,0.07765424062161101,-0.03162277660172919,-0.2721024480093339,0.38137946523267413
964,0,-86.5,-51.9,-64.75,0.07765424062161101,-0.03162277660172919,-0.2721024480093339,0.38137946523267413
965,2,-86.5,-51.9,-64.75,0.07765424062161101,-0.03162277660172919,-0.2721024480093339,0.38137946523267413
966,3,-86.5,-51.9,-64.75,0.07765424062161101,-0.03162277660172919,-0.2721024480093339,0.38137946523267413
967,0,-86.5,-51.9,-64.75,0.07765424062161101,-0.03162277660172919,-0.2721024480093339,0.38137946523267413
968,1,-86.5,-51.9,-64.75,0.07765424062161101,-0.03162277660172919,-0.2721024480093339,0.38137946523267413
969,2,-86.5,-51.9,-64.75,0.07765424062161101,-0.03162277660172919,-0.2721024480093339,0.38137946523267413
970,2,-86.5,-51.9,-64.75,0.07765424062161101,-0.03162277660172919,-0.2721024480093339,0.38137946523267413
971,2,-86.5,-51.9,-64.75,0.07765424062161101,-0.03162277660172919,-0.2721024480093339,0.38137946523267413
972,2,-86.5,-51.9,-64.75,0.07765424062161101,-0.03162277660172919,-0.2721024480093339,0.38137946523267413
973,0,-86.5,-51.9,-57.666666666666664,0.07765424062161101,-0.03162277660172919,3.6714112912564083,3.7806883084797485
974,1,-86.5,-51.9,-64.75,0.07765424062161101,-0.03162277660172919,-0.2721024480093339,0.38137946523267413
975,2,-86.5,-51.9,-64.75,0.07765424062161101,-0.03162277660172919,-0.2721024480093339,0.38137946523267413
976,2,-86.5,-51.9,-64.75,0.07765424062161101,-0.03162277660172919,-0.2721024480093339,0.38137946523267413
977,3,-86.5,-51.9,-57.666666666666664,0.07765424062161101,-0.03162277660172919,3.6714112912564083,3.7806883084797485
978,2,-86.5,-51.9,-64.75,0.07765424062161101,-0.03162277660172919,-0.2721024480093339,0.38137946523267413
979,1,-86.5,-51.9,-64.75,0.07765424062161101,-0.03162277660172919,-0.2721024480093339,0.38137946523267413
980,1,-86.5,-51.9,-64.75,0.07765424062161101,-0.03162277660172919,-0.2721024480093339,0.38137946523267413
981,3,-86.5,-51.9,-64.75,0.07765424062161101,-0.03162277660172919,-0.2721024480093339,0.38137946523267413
982,2,-86.5,-51.9,-64.75,0.07765424062161101,-0.03162277660172919,-0.2721024480093339,0.38137946523267413
983,2,-86.5,-51.9,-64.75,0.07765424062161101,-0.03162277660172919,-0.2721024480093339,0.38137946523267413
984,2,-86.5,-51.9,-64.75,0.07765424062161101,-0.03162277660172919,-0.2721024480093339,0.38137946523267413
985,1,-86.5,-51.9,-64.75,0.07765424062161101,-0.03162277660172919,-0.2721024480093339,0.38137946523267413
986,2,-86.5,-51.9,-64.75,0.07765424062161101,-0.03162277660172919,-0.2721024480093339,0.38137946523267413
987,2,-86.5,-51.9,-64.75,0.07765424062161101,-0.03162277660172919,-0.2721024480093339,0.38137946523267413
988,3,-86.5,-51.9,-64.75,0.07765424062161101,-0.03162277660172919,-0.2721024480093339,0.38137946523267413
989,0,-86.5,-51.9,-64.75,0.07765424062161101,-0.03162277660172919,-0.2721024480093339,0.38137946523267413
990,2,-86.5,-51.9,-64.75,0.07765424062161101,-0.03162277660172919,-0.2721024480093339,0.38137946523267413
991,0,-86.5,-51.9,-64.75,0.07765424062161101,-0.03162277660172919,-0.2721024480093339,0.38137946523267413
992,0,-86.5,-51.9,-64.75,0.07765424062161101,-0.03162277660172919,-0.2721024480093339,0.38137946523267413
993,1,-86.5,-51.9,-64.75,0.07765424062161101,-0.03162277660172919,-0.2721024480093339,0.38137946523267413
994,0,-86.5,-51.9,-64.75,0.07765424062161101,-0.03162277660172919,-0.2721024480093339,0.38137946523267413
995,2,-86.5,-51.9,-64.75,0.07765424062161101,-0.03162277660172919,-0.2721024480093339,0.38137946523267413
996,1,-86.5,-51.9,-64.75,0.07765424062161101,-0.03162277660172919,-0.2721024480093339,0.38137946523267413
997,2,-86.5,-51.9,-64.75,0.07765424062161101,-0.03162277660172919,-0.2721024480093339,0.38137946523267413
998,0,-86.5,-51.9,-64.75,0.07765424062161101,-0.03162277660172919,-0.2721024480093339,0.38137946523267413
999,2,-86.5,-51.9,-64.75,0.07765424062161101,-0.03162277660172919,-0.2721024480093339,0.38137946523267413
1000,1,-86.5,-51.9,-64.75,0.07765424062161101,-0.03162277660172919,-0.2721024480093339,0.38137946523267413
